400,0.9509
401,0.9476
402,0.9471
403,0.9454
404,0.9426
405,0.9436
406,0.9441
407,0.9432
408,0.9414
409,0.9415
410,0.9435
411,0.9437
412,0.9442
413,0.9450
414,0.9465
415,0.9471
416,0.9478
417,0.9481
418,0.9489
419,0.9496
420,0.9498
421,0.9496
422,0.9526
423,0.9574
424,0.9591
425,0.9569
426,0.9579
427,0.9570
428,0.9570
429,0.9564
430,0.9563
431,0.9572
432,0.9594
433,0.9583
434,0.9595
435,0.9612
436,0.9599
437,0.9581
438,0.9591
439,0.9588
440,0.9572
441,0.9531
442,0.9524
443,0.9531
444,0.9544
445,0.9551
446,0.9534
447,0.9528
448,0.9520
449,0.9526
450,0.9515
451,0.9501
452,0.9472
453,0.9461
454,0.9464
455,0.9455
456,0.9456
457,0.9459
458,0.9470
459,0.9454
460,0.9428
461,0.9426
462,0.9450
463,0.9468
464,0.9444
465,0.9432
466,0.9443
467,0.9463
468,0.9457
469,0.9455
470,0.9493
471,0.9503
472,0.9506
473,0.9502
474,0.9519
475,0.9529
476,0.9526
477,0.9544
478,0.9542
479,0.9553
480,0.9577
481,0.9567
482,0.9548
483,0.9567
484,0.9592
485,0.9599
486,0.9578
487,0.9568
488,0.9577
489,0.9577
490,0.9577
491,0.9573
492,0.9584
493,0.9600
494,0.9593
495,0.9592
496,0.9588
497,0.9577
498,0.9557
499,0.9562
500,0.9558
501,0.9540
502,0.9558
503,0.9564
504,0.9568
505,0.9537
506,0.9533
507,0.9540
508,0.9538
509,0.9529
510,0.9526
511,0.9516
512,0.9508
513,0.9498
514,0.9487
515,0.9483
516,0.9475
517,0.9451
518,0.9447
519,0.9454
520,0.9469
521,0.9468
522,0.9477
523,0.9469
524,0.9468
525,0.9457
526,0.9443
527,0.9443
528,0.9436
529,0.9443
530,0.9440
531,0.9437
532,0.9471
533,0.9470
534,0.9475
535,0.9473
536,0.9470
537,0.9470
538,0.9465
539,0.9467
540,0.9473
541,0.9483
542,0.9491
543,0.9489
544,0.9511
545,0.9515
546,0.9525
547,0.9504
548,0.9500
549,0.9519
550,0.9551
551,0.9559
552,0.9559
553,0.9557
554,0.9556
555,0.9575
556,0.9575
557,0.9572
558,0.9565
559,0.9559
560,0.9588
561,0.9610
562,0.9607
563,0.9600
564,0.9603
565,0.9601
566,0.9580
567,0.9570
568,0.9588
569,0.9596
570,0.9604
571,0.9585
572,0.9578
573,0.9569
574,0.9595
575,0.9599
576,0.9590
577,0.9552
578,0.9541
579,0.9543
580,0.9564
581,0.9588
582,0.9582
583,0.9569
584,0.9571
585,0.9547
586,0.9550
587,0.9574
588,0.9591
589,0.9571
590,0.9566
591,0.9579
592,0.9546
593,0.9527
594,0.9508
595,0.9525
596,0.9529
597,0.9524
598,0.9541
599,0.9534
600,0.9496
601,0.9478
602,0.9470
603,0.9473
604,0.9486
605,0.9498
606,0.9484
607,0.9481
608,0.9466
609,0.9488
610,0.9477
611,0.9457
612,0.9467
613,0.9476
614,0.9483
615,0.9487
616,0.9471
617,0.9468
618,0.9467
619,0.9471
620,0.9454
621,0.9467
622,0.9471
623,0.9444
624,0.9443
625,0.9419
626,0.9424
627,0.9454
628,0.9483
629,0.9461
630,0.9463
631,0.9474
632,0.9477
633,0.9464
634,0.9461
635,0.9451
636,0.9457
637,0.9465
638,0.9487
639,0.9504
640,0.9530
641,0.9531
642,0.9526
643,0.9520
644,0.9519
645,0.9513
646,0.9500
647,0.9489
648,0.9512
649,0.9535
650,0.9538
651,0.9528
652,0.9547
653,0.9544
654,0.9568
655,0.9636
656,0.9639
657,0.9661
658,0.9602
659,0.9551
660,0.9551
661,0.9565
662,0.9578
663,0.9577
664,0.9571
665,0.9575
666,0.9581
667,0.9582
668,0.9581
669,0.9571
670,0.9559
671,0.9548
672,0.9570
673,0.9604
674,0.9613
675,0.9601
676,0.9584
677,0.9549
678,0.9536
679,0.9542
680,0.9571
681,0.9571
682,0.9579
683,0.9589
684,0.9621
685,0.9626
686,0.9599
687,0.9582
688,0.9594
689,0.9594
690,0.9588
691,0.9595
692,0.9579
693,0.9548
694,0.9548
695,0.9566
696,0.9563
697,0.9566
698,0.9574
699,0.9574
700,0.9565
701,0.9542
702,0.9543
703,0.9558
704,0.9542
705,0.9516
706,0.9517
707,0.9524
708,0.9510
709,0.9499
710,0.9505
711,0.9508
712,0.9529
713,0.9539
714,0.9538
715,0.9524
716,0.9516
717,0.9501
718,0.9488
719,0.9471
720,0.9476
721,0.9501
722,0.9494
723,0.9503
724,0.9519
725,0.9525
726,0.9527
727,0.9496
728,0.9471
729,0.9449
730,0.9457
731,0.9471
732,0.9489
733,0.9486
734,0.9481
735,0.9480
736,0.9483
737,0.9454
738,0.9442
739,0.9503
740,0.9529
741,0.9498
742,0.9491
743,0.9479
744,0.9471
745,0.9462
746,0.9471
747,0.9421
748,0.9405
749,0.9436
750,0.9450
751,0.9486
752,0.9487
753,0.9483
754,0.9498
755,0.9499
756,0.9488
757,0.9494
758,0.9488
759,0.9445
760,0.9425
761,0.9435
762,0.9458
763,0.9471
764,0.9474
765,0.9467
766,0.9470
767,0.9488
768,0.9513
769,0.9519
770,0.9522
771,0.9507
772,0.9504
773,0.9502
774,0.9487
775,0.9471
776,0.9479
777,0.9479
778,0.9502
779,0.9503
780,0.9457
781,0.9466
782,0.9493
783,0.9512
784,0.9540
785,0.9537
786,0.9537
787,0.9531
788,0.9517
789,0.9515
790,0.9534
791,0.9523
792,0.9506
793,0.9515
794,0.9511
795,0.9496
796,0.9489
797,0.9494
798,0.9479
799,0.9476
800,0.9483
801,0.9505
802,0.9516
803,0.9527
804,0.9545
805,0.9540
806,0.9554
807,0.9560
808,0.9553
809,0.9553
810,0.9541
811,0.9540
812,0.9549
813,0.9527
814,0.9521
815,0.9539
816,0.9556
817,0.9568
818,0.9545
819,0.9547
820,0.9566
821,0.9566
822,0.9583
823,0.9619
824,0.9600
825,0.9579
826,0.9568
827,0.9558
828,0.9551
829,0.9546
830,0.9561
831,0.9548
832,0.9540
833,0.9531
834,0.9519
835,0.9533
836,0.9567
837,0.9573
838,0.9577
839,0.9569
840,0.9570
841,0.9577
842,0.9580
843,0.9608
844,0.9615
845,0.9567
846,0.9574
847,0.9604
848,0.9588
849,0.9584
850,0.9589
851,0.9585
852,0.9606
853,0.9604
854,0.9584
855,0.9580
856,0.9590
857,0.9583
858,0.9559
859,0.9542
860,0.9547
861,0.9577
862,0.9588
863,0.9605
864,0.9600
865,0.9583
866,0.9579
867,0.9593
868,0.9616
869,0.9605
870,0.9609
871,0.9590
872,0.9584
873,0.9564
874,0.9552
875,0.9546
876,0.9553
877,0.9522
878,0.9529
879,0.9540
880,0.9544
881,0.9549
882,0.9573
883,0.9592
884,0.9619
885,0.9605
886,0.9610
887,0.9607
888,0.9593
889,0.9573
890,0.9594
891,0.9610
892,0.9606
893,0.9606
894,0.9604
895,0.9602
896,0.9574
897,0.9560
898,0.9532
899,0.9540
