400,0.9494
401,0.9504
402,0.9518
403,0.9534
404,0.9571
405,0.9584
406,0.9585
407,0.9590
408,0.9601
409,0.9618
410,0.9629
411,0.9626
412,0.9613
413,0.9609
414,0.9587
415,0.9581
416,0.9577
417,0.9570
418,0.9546
419,0.9535
420,0.9532
421,0.9536
422,0.9505
423,0.9491
424,0.9488
425,0.9488
426,0.9473
427,0.9483
428,0.9503
429,0.9510
430,0.9520
431,0.9519
432,0.9535
433,0.9554
434,0.9545
435,0.9550
436,0.9577
437,0.9618
438,0.9604
439,0.9604
440,0.9616
441,0.9627
442,0.9619
443,0.9614
444,0.9599
445,0.9590
446,0.9593
447,0.9585
448,0.9561
449,0.9544
450,0.9550
451,0.9539
452,0.9523
453,0.9521
454,0.9498
455,0.9497
456,0.9497
457,0.9494
458,0.9495
459,0.9496
460,0.9504
461,0.9517
462,0.9518
463,0.9521
464,0.9541
465,0.9526
466,0.9542
467,0.9576
468,0.9577
469,0.9587
470,0.9608
471,0.9608
472,0.9621
473,0.9631
474,0.9625
475,0.9627
476,0.9625
477,0.9619
478,0.9618
479,0.9616
480,0.9591
481,0.9586
482,0.9591
483,0.9574
484,0.9570
485,0.9644
486,0.9638
487,0.9620
488,0.9546
489,0.9531
490,0.9539
491,0.9537
492,0.9519
493,0.9506
494,0.9501
495,0.9502
496,0.9494
497,0.9494
498,0.9517
499,0.9520
500,0.9516
501,0.9510
502,0.9526
503,0.9531
504,0.9533
505,0.9553
506,0.9561
507,0.9568
508,0.9593
509,0.9599
510,0.9598
511,0.9612
512,0.9616
513,0.9608
514,0.9612
515,0.9616
516,0.9617
517,0.9631
518,0.9632
519,0.9622
520,0.9608
521,0.9601
522,0.9605
523,0.9587
524,0.9576
525,0.9577
526,0.9581
527,0.9563
528,0.9559
529,0.9549
530,0.9543
531,0.9554
532,0.9521
533,0.9512
534,0.9512
535,0.9511
536,0.9514
537,0.9509
538,0.9503
539,0.9500
540,0.9483
541,0.9488
542,0.9499
543,0.9510
544,0.9531
545,0.9531
546,0.9509
547,0.9525
548,0.9536
549,0.9526
550,0.9536
551,0.9566
552,0.9585
553,0.9580
554,0.9590
555,0.9579
556,0.9585
557,0.9577
558,0.9598
559,0.9624
560,0.9621
561,0.9620
562,0.9620
563,0.9633
564,0.9634
565,0.9631
566,0.9642
567,0.9640
568,0.9604
569,0.9591
570,0.9593
571,0.9611
572,0.9606
573,0.9597
574,0.9574
575,0.9581
576,0.9578
577,0.9582
578,0.9579
579,0.9560
580,0.9566
581,0.9544
582,0.9524
583,0.9534
584,0.9525
585,0.9505
586,0.9506
587,0.9532
588,0.9533
589,0.9520
590,0.9523
591,0.9524
592,0.9535
593,0.9534
594,0.9518
595,0.9482
596,0.9480
597,0.9490
598,0.9461
599,0.9454
600,0.9496
601,0.9508
602,0.9513
603,0.9524
604,0.9526
605,0.9515
606,0.9521
607,0.9541
608,0.9567
609,0.9551
610,0.9564
611,0.9573
612,0.9567
613,0.9576
614,0.9575
615,0.9551
616,0.9566
617,0.9598
618,0.9621
619,0.9628
620,0.9646
621,0.9639
622,0.9625
623,0.9637
624,0.9643
625,0.9667
626,0.9667
627,0.9662
628,0.9645
629,0.9648
630,0.9636
631,0.9613
632,0.9619
633,0.9625
634,0.9613
635,0.9614
636,0.9610
637,0.9600
638,0.9586
639,0.9592
640,0.9573
641,0.9550
642,0.9564
643,0.9568
644,0.9557
645,0.9557
646,0.9552
647,0.9538
648,0.9532
649,0.9523
650,0.9539
651,0.9547
652,0.9512
653,0.9520
654,0.9570
655,0.9846
656,0.9914
657,0.9807
658,0.9603
659,0.9492
660,0.9495
661,0.9493
662,0.9490
663,0.9486
664,0.9479
665,0.9494
666,0.9492
667,0.9496
668,0.9512
669,0.9520
670,0.9507
671,0.9512
672,0.9500
673,0.9500
674,0.9519
675,0.9520
676,0.9529
677,0.9543
678,0.9554
679,0.9560
680,0.9545
681,0.9559
682,0.9583
683,0.9581
684,0.9573
685,0.9559
686,0.9557
687,0.9564
688,0.9565
689,0.9575
690,0.9588
691,0.9580
692,0.9586
693,0.9611
694,0.9605
695,0.9622
696,0.9641
697,0.9643
698,0.9635
699,0.9634
700,0.9627
701,0.9618
702,0.9627
703,0.9615
704,0.9618
705,0.9634
706,0.9637
707,0.9644
708,0.9639
709,0.9646
710,0.9639
711,0.9623
712,0.9596
713,0.9584
714,0.9584
715,0.9588
716,0.9587
717,0.9591
718,0.9590
719,0.9591
720,0.9581
721,0.9584
722,0.9583
723,0.9559
724,0.9549
725,0.9551
726,0.9563
727,0.9581
728,0.9573
729,0.9553
730,0.9540
731,0.9554
732,0.9549
733,0.9530
734,0.9526
735,0.9528
736,0.9524
737,0.9528
738,0.9528
739,0.9507
740,0.9474
741,0.9458
742,0.9473
743,0.9485
744,0.9493
745,0.9507
746,0.9495
747,0.9493
748,0.9500
749,0.9496
750,0.9495
751,0.9489
752,0.9476
753,0.9490
754,0.9488
755,0.9492
756,0.9493
757,0.9486
758,0.9490
759,0.9494
760,0.9499
761,0.9506
762,0.9506
763,0.9505
764,0.9507
765,0.9495
766,0.9492
767,0.9495
768,0.9492
769,0.9503
770,0.9522
771,0.9549
772,0.9543
773,0.9531
774,0.9543
775,0.9549
776,0.9534
777,0.9545
778,0.9541
779,0.9554
780,0.9593
781,0.9586
782,0.9579
783,0.9579
784,0.9584
785,0.9597
786,0.9579
787,0.9585
788,0.9591
789,0.9592
790,0.9600
791,0.9600
792,0.9613
793,0.9609
794,0.9603
795,0.9618
796,0.9652
797,0.9679
798,0.9676
799,0.9673
800,0.9665
801,0.9667
802,0.9675
803,0.9675
804,0.9634
805,0.9616
806,0.9604
807,0.9609
808,0.9608
809,0.9611
810,0.9617
811,0.9623
812,0.9627
813,0.9642
814,0.9652
815,0.9645
816,0.9617
817,0.9591
818,0.9584
819,0.9572
820,0.9548
821,0.9539
822,0.9528
823,0.9515
824,0.9538
825,0.9544
826,0.9551
827,0.9560
828,0.9572
829,0.9576
830,0.9563
831,0.9559
832,0.9550
833,0.9541
834,0.9543
835,0.9551
836,0.9533
837,0.9522
838,0.9537
839,0.9520
840,0.9510
841,0.9509
842,0.9530
843,0.9500
844,0.9483
845,0.9488
846,0.9492
847,0.9486
848,0.9500
849,0.9516
850,0.9511
851,0.9501
852,0.9508
853,0.9512
854,0.9506
855,0.9491
856,0.9470
857,0.9465
858,0.9488
859,0.9497
860,0.9532
861,0.9521
862,0.9506
863,0.9481
864,0.9498
865,0.9492
866,0.9478
867,0.9481
868,0.9474
869,0.9478
870,0.9482
871,0.9485
872,0.9482
873,0.9487
874,0.9486
875,0.9486
876,0.9495
877,0.9489
878,0.9481
879,0.9513
880,0.9525
881,0.9523
882,0.9516
883,0.9503
884,0.9490
885,0.9518
886,0.9538
887,0.9541
888,0.9541
889,0.9563
890,0.9563
891,0.9554
892,0.9572
893,0.9556
894,0.9533
895,0.9518
896,0.9510
897,0.9517
898,0.9530
899,0.9556
