400,0.9561
401,0.9524
402,0.9511
403,0.9510
404,0.9490
405,0.9467
406,0.9469
407,0.9474
408,0.9476
409,0.9492
410,0.9497
411,0.9491
412,0.9536
413,0.9555
414,0.9554
415,0.9553
416,0.9547
417,0.9534
418,0.9528
419,0.9517
420,0.9503
421,0.9508
422,0.9495
423,0.9496
424,0.9496
425,0.9483
426,0.9491
427,0.9483
428,0.9501
429,0.9524
430,0.9530
431,0.9523
432,0.9550
433,0.9569
434,0.9573
435,0.9577
436,0.9565
437,0.9531
438,0.9520
439,0.9510
440,0.9485
441,0.9474
442,0.9464
443,0.9456
444,0.9457
445,0.9469
446,0.9474
447,0.9496
448,0.9510
449,0.9545
450,0.9546
451,0.9556
452,0.9566
453,0.9574
454,0.9596
455,0.9578
456,0.9560
457,0.9546
458,0.9551
459,0.9525
460,0.9475
461,0.9475
462,0.9485
463,0.9470
464,0.9436
465,0.9436
466,0.9449
467,0.9486
468,0.9500
469,0.9496
470,0.9510
471,0.9530
472,0.9543
473,0.9563
474,0.9561
475,0.9558
476,0.9568
477,0.9593
478,0.9570
479,0.9546
480,0.9545
481,0.9550
482,0.9546
483,0.9531
484,0.9520
485,0.9564
486,0.9540
487,0.9521
488,0.9483
489,0.9469
490,0.9473
491,0.9480
492,0.9505
493,0.9535
494,0.9525
495,0.9522
496,0.9525
497,0.9520
498,0.9534
499,0.9551
500,0.9565
501,0.9573
502,0.9571
503,0.9570
504,0.9562
505,0.9557
506,0.9557
507,0.9558
508,0.9529
509,0.9513
510,0.9487
511,0.9489
512,0.9484
513,0.9467
514,0.9440
515,0.9443
516,0.9447
517,0.9454
518,0.9455
519,0.9486
520,0.9508
521,0.9531
522,0.9533
523,0.9521
524,0.9524
525,0.9529
526,0.9540
527,0.9553
528,0.9558
529,0.9578
530,0.9579
531,0.9579
532,0.9573
533,0.9560
534,0.9541
535,0.9550
536,0.9544
537,0.9521
538,0.9493
539,0.9491
540,0.9486
541,0.9464
542,0.9463
543,0.9475
544,0.9481
545,0.9480
546,0.9475
547,0.9478
548,0.9469
549,0.9484
550,0.9495
551,0.9512
552,0.9522
553,0.9551
554,0.9564
555,0.9571
556,0.9585
557,0.9565
558,0.9571
559,0.9579
560,0.9580
561,0.9583
562,0.9591
563,0.9576
564,0.9557
565,0.9552
566,0.9554
567,0.9568
568,0.9564
569,0.9566
570,0.9579
571,0.9563
572,0.9557
573,0.9530
574,0.9515
575,0.9504
576,0.9487
577,0.9450
578,0.9428
579,0.9422
580,0.9440
581,0.9453
582,0.9453
583,0.9457
584,0.9473
585,0.9487
586,0.9504
587,0.9530
588,0.9537
589,0.9542
590,0.9548
591,0.9562
592,0.9528
593,0.9540
594,0.9569
595,0.9617
596,0.9629
597,0.9629
598,0.9640
599,0.9625
600,0.9568
601,0.9556
602,0.9544
603,0.9553
604,0.9546
605,0.9540
606,0.9536
607,0.9534
608,0.9531
609,0.9536
610,0.9519
611,0.9503
612,0.9497
613,0.9488
614,0.9490
615,0.9476
616,0.9471
617,0.9463
618,0.9458
619,0.9467
620,0.9464
621,0.9458
622,0.9462
623,0.9468
624,0.9447
625,0.9443
626,0.9463
627,0.9482
628,0.9527
629,0.9552
630,0.9543
631,0.9538
632,0.9522
633,0.9537
634,0.9568
635,0.9572
636,0.9560
637,0.9562
638,0.9561
639,0.9573
640,0.9590
641,0.9584
642,0.9573
643,0.9584
644,0.9570
645,0.9540
646,0.9533
647,0.9517
648,0.9521
649,0.9521
650,0.9533
651,0.9531
652,0.9493
653,0.9497
654,0.9523
655,0.9683
656,0.9756
657,0.9730
658,0.9583
659,0.9457
660,0.9455
661,0.9477
662,0.9487
663,0.9493
664,0.9499
665,0.9498
666,0.9482
667,0.9466
668,0.9444
669,0.9448
670,0.9470
671,0.9484
672,0.9498
673,0.9532
674,0.9551
675,0.9507
676,0.9491
677,0.9522
678,0.9531
679,0.9545
680,0.9551
681,0.9536
682,0.9507
683,0.9516
684,0.9534
685,0.9542
686,0.9570
687,0.9583
688,0.9599
689,0.9575
690,0.9568
691,0.9575
692,0.9576
693,0.9574
694,0.9548
695,0.9552
696,0.9544
697,0.9538
698,0.9526
699,0.9537
700,0.9540
701,0.9525
702,0.9509
703,0.9478
704,0.9455
705,0.9430
706,0.9406
707,0.9433
708,0.9445
709,0.9445
710,0.9428
711,0.9429
712,0.9452
713,0.9464
714,0.9465
715,0.9470
716,0.9480
717,0.9474
718,0.9468
719,0.9457
720,0.9466
721,0.9492
722,0.9493
723,0.9508
724,0.9516
725,0.9517
726,0.9521
727,0.9512
728,0.9491
729,0.9501
730,0.9522
731,0.9563
732,0.9578
733,0.9589
734,0.9592
735,0.9603
736,0.9605
737,0.9593
738,0.9571
739,0.9581
740,0.9588
741,0.9604
742,0.9606
743,0.9566
744,0.9563
745,0.9550
746,0.9545
747,0.9535
748,0.9544
749,0.9568
750,0.9558
751,0.9542
752,0.9549
753,0.9557
754,0.9543
755,0.9518
756,0.9489
757,0.9480
758,0.9491
759,0.9503
760,0.9496
761,0.9487
762,0.9496
763,0.9513
764,0.9511
765,0.9502
766,0.9498
767,0.9497
768,0.9513
769,0.9502
770,0.9478
771,0.9441
772,0.9443
773,0.9432
774,0.9431
775,0.9443
776,0.9450
777,0.9440
778,0.9432
779,0.9430
780,0.9430
781,0.9453
782,0.9457
783,0.9471
784,0.9496
785,0.9506
786,0.9492
787,0.9472
788,0.9457
789,0.9467
790,0.9468
791,0.9491
792,0.9498
793,0.9502
794,0.9495
795,0.9485
796,0.9486
797,0.9508
798,0.9534
799,0.9553
800,0.9544
801,0.9547
802,0.9591
803,0.9594
804,0.9581
805,0.9567
806,0.9550
807,0.9548
808,0.9567
809,0.9580
810,0.9590
811,0.9607
812,0.9615
813,0.9603
814,0.9585
815,0.9586
816,0.9564
817,0.9556
818,0.9564
819,0.9549
820,0.9537
821,0.9543
822,0.9566
823,0.9548
824,0.9518
825,0.9509
826,0.9537
827,0.9569
828,0.9572
829,0.9576
830,0.9579
831,0.9574
832,0.9568
833,0.9513
834,0.9451
835,0.9437
836,0.9435
837,0.9444
838,0.9457
839,0.9463
840,0.9450
841,0.9443
842,0.9450
843,0.9485
844,0.9472
845,0.9436
846,0.9418
847,0.9409
848,0.9389
849,0.9375
850,0.9363
851,0.9384
852,0.9435
853,0.9470
854,0.9465
855,0.9459
856,0.9453
857,0.9468
858,0.9489
859,0.9485
860,0.9481
861,0.9491
862,0.9495
863,0.9500
864,0.9489
865,0.9489
866,0.9515
867,0.9493
868,0.9498
869,0.9508
870,0.9513
871,0.9500
872,0.9474
873,0.9466
874,0.9459
875,0.9473
876,0.9491
877,0.9493
878,0.9507
879,0.9516
880,0.9522
881,0.9544
882,0.9554
883,0.9565
884,0.9576
885,0.9593
886,0.9607
887,0.9596
888,0.9598
889,0.9633
890,0.9642
891,0.9636
892,0.9618
893,0.9597
894,0.9577
895,0.9562
896,0.9567
897,0.9563
898,0.9563
899,0.9565
