400,0.9541
401,0.9527
402,0.9531
403,0.9530
404,0.9512
405,0.9494
406,0.9485
407,0.9490
408,0.9486
409,0.9482
410,0.9472
411,0.9467
412,0.9486
413,0.9507
414,0.9512
415,0.9521
416,0.9523
417,0.9524
418,0.9530
419,0.9532
420,0.9526
421,0.9523
422,0.9531
423,0.9535
424,0.9515
425,0.9490
426,0.9485
427,0.9471
428,0.9469
429,0.9473
430,0.9480
431,0.9480
432,0.9504
433,0.9526
434,0.9540
435,0.9561
436,0.9564
437,0.9547
438,0.9542
439,0.9541
440,0.9524
441,0.9506
442,0.9488
443,0.9486
444,0.9478
445,0.9468
446,0.9463
447,0.9467
448,0.9477
449,0.9495
450,0.9505
451,0.9521
452,0.9531
453,0.9535
454,0.9555
455,0.9538
456,0.9554
457,0.9550
458,0.9567
459,0.9545
460,0.9506
461,0.9506
462,0.9507
463,0.9504
464,0.9454
465,0.9451
466,0.9464
467,0.9481
468,0.9480
469,0.9473
470,0.9474
471,0.9491
472,0.9499
473,0.9510
474,0.9517
475,0.9528
476,0.9540
477,0.9562
478,0.9555
479,0.9551
480,0.9552
481,0.9558
482,0.9559
483,0.9565
484,0.9550
485,0.9574
486,0.9552
487,0.9532
488,0.9496
489,0.9477
490,0.9470
491,0.9473
492,0.9488
493,0.9495
494,0.9489
495,0.9491
496,0.9491
497,0.9489
498,0.9504
499,0.9520
500,0.9529
501,0.9539
502,0.9550
503,0.9560
504,0.9566
505,0.9566
506,0.9564
507,0.9559
508,0.9555
509,0.9545
510,0.9523
511,0.9513
512,0.9505
513,0.9487
514,0.9458
515,0.9452
516,0.9449
517,0.9448
518,0.9448
519,0.9470
520,0.9486
521,0.9486
522,0.9490
523,0.9492
524,0.9498
525,0.9500
526,0.9504
527,0.9518
528,0.9526
529,0.9542
530,0.9555
531,0.9557
532,0.9563
533,0.9552
534,0.9546
535,0.9547
536,0.9543
537,0.9535
538,0.9524
539,0.9524
540,0.9519
541,0.9502
542,0.9498
543,0.9490
544,0.9488
545,0.9480
546,0.9473
547,0.9469
548,0.9464
549,0.9458
550,0.9466
551,0.9480
552,0.9491
553,0.9509
554,0.9521
555,0.9526
556,0.9532
557,0.9534
558,0.9539
559,0.9545
560,0.9540
561,0.9551
562,0.9565
563,0.9558
564,0.9546
565,0.9546
566,0.9554
567,0.9565
568,0.9576
569,0.9589
570,0.9612
571,0.9581
572,0.9562
573,0.9540
574,0.9525
575,0.9508
576,0.9488
577,0.9458
578,0.9442
579,0.9441
580,0.9451
581,0.9464
582,0.9456
583,0.9445
584,0.9458
585,0.9466
586,0.9472
587,0.9487
588,0.9495
589,0.9491
590,0.9502
591,0.9512
592,0.9487
593,0.9499
594,0.9519
595,0.9573
596,0.9593
597,0.9593
598,0.9602
599,0.9590
600,0.9551
601,0.9541
602,0.9537
603,0.9540
604,0.9540
605,0.9555
606,0.9562
607,0.9566
608,0.9561
609,0.9562
610,0.9534
611,0.9518
612,0.9515
613,0.9507
614,0.9508
615,0.9495
616,0.9488
617,0.9482
618,0.9466
619,0.9466
620,0.9462
621,0.9465
622,0.9469
623,0.9458
624,0.9430
625,0.9420
626,0.9435
627,0.9462
628,0.9499
629,0.9520
630,0.9514
631,0.9515
632,0.9507
633,0.9521
634,0.9537
635,0.9540
636,0.9547
637,0.9558
638,0.9556
639,0.9567
640,0.9576
641,0.9574
642,0.9566
643,0.9565
644,0.9558
645,0.9556
646,0.9548
647,0.9531
648,0.9537
649,0.9547
650,0.9551
651,0.9558
652,0.9530
653,0.9521
654,0.9530
655,0.9702
656,0.9769
657,0.9742
658,0.9595
659,0.9491
660,0.9476
661,0.9478
662,0.9496
663,0.9509
664,0.9496
665,0.9491
666,0.9476
667,0.9464
668,0.9446
669,0.9453
670,0.9464
671,0.9459
672,0.9468
673,0.9493
674,0.9509
675,0.9492
676,0.9488
677,0.9494
678,0.9492
679,0.9506
680,0.9518
681,0.9514
682,0.9494
683,0.9500
684,0.9513
685,0.9538
686,0.9565
687,0.9574
688,0.9574
689,0.9565
690,0.9562
691,0.9572
692,0.9575
693,0.9555
694,0.9537
695,0.9546
696,0.9544
697,0.9550
698,0.9547
699,0.9541
700,0.9535
701,0.9525
702,0.9527
703,0.9514
704,0.9481
705,0.9453
706,0.9435
707,0.9451
708,0.9453
709,0.9445
710,0.9441
711,0.9448
712,0.9471
713,0.9482
714,0.9486
715,0.9486
716,0.9497
717,0.9488
718,0.9474
719,0.9444
720,0.9447
721,0.9468
722,0.9471
723,0.9495
724,0.9496
725,0.9483
726,0.9481
727,0.9477
728,0.9464
729,0.9467
730,0.9475
731,0.9503
732,0.9519
733,0.9536
734,0.9551
735,0.9564
736,0.9576
737,0.9560
738,0.9536
739,0.9561
740,0.9569
741,0.9577
742,0.9571
743,0.9553
744,0.9547
745,0.9534
746,0.9530
747,0.9520
748,0.9524
749,0.9556
750,0.9556
751,0.9551
752,0.9556
753,0.9572
754,0.9567
755,0.9546
756,0.9528
757,0.9524
758,0.9514
759,0.9511
760,0.9509
761,0.9523
762,0.9539
763,0.9544
764,0.9534
765,0.9517
766,0.9509
767,0.9516
768,0.9525
769,0.9518
770,0.9511
771,0.9494
772,0.9483
773,0.9469
774,0.9464
775,0.9476
776,0.9472
777,0.9460
778,0.9443
779,0.9434
780,0.9418
781,0.9436
782,0.9432
783,0.9453
784,0.9469
785,0.9476
786,0.9461
787,0.9455
788,0.9454
789,0.9463
790,0.9466
791,0.9468
792,0.9465
793,0.9465
794,0.9467
795,0.9469
796,0.9476
797,0.9481
798,0.9488
799,0.9504
800,0.9500
801,0.9510
802,0.9526
803,0.9530
804,0.9541
805,0.9529
806,0.9528
807,0.9542
808,0.9553
809,0.9559
810,0.9571
811,0.9570
812,0.9569
813,0.9567
814,0.9563
815,0.9550
816,0.9537
817,0.9550
818,0.9555
819,0.9555
820,0.9556
821,0.9564
822,0.9586
823,0.9573
824,0.9554
825,0.9550
826,0.9565
827,0.9583
828,0.9576
829,0.9552
830,0.9550
831,0.9563
832,0.9571
833,0.9536
834,0.9498
835,0.9495
836,0.9493
837,0.9500
838,0.9501
839,0.9493
840,0.9489
841,0.9474
842,0.9461
843,0.9490
844,0.9480
845,0.9440
846,0.9406
847,0.9401
848,0.9399
849,0.9393
850,0.9396
851,0.9423
852,0.9457
853,0.9470
854,0.9456
855,0.9449
856,0.9442
857,0.9456
858,0.9487
859,0.9487
860,0.9470
861,0.9477
862,0.9477
863,0.9474
864,0.9462
865,0.9470
866,0.9482
867,0.9462
868,0.9461
869,0.9480
870,0.9483
871,0.9475
872,0.9465
873,0.9452
874,0.9439
875,0.9452
876,0.9468
877,0.9469
878,0.9478
879,0.9500
880,0.9511
881,0.9525
882,0.9517
883,0.9528
884,0.9543
885,0.9543
886,0.9548
887,0.9554
888,0.9559
889,0.9586
890,0.9607
891,0.9622
892,0.9613
893,0.9599
894,0.9581
895,0.9577
896,0.9565
897,0.9567
898,0.9565
899,0.9578
