400,0.9555
401,0.9552
402,0.9546
403,0.9539
404,0.9544
405,0.9546
406,0.9549
407,0.9561
408,0.9536
409,0.9539
410,0.9530
411,0.9526
412,0.9529
413,0.9533
414,0.9536
415,0.9528
416,0.9521
417,0.9529
418,0.9531
419,0.9524
420,0.9520
421,0.9523
422,0.9526
423,0.9543
424,0.9531
425,0.9519
426,0.9499
427,0.9500
428,0.9529
429,0.9524
430,0.9522
431,0.9510
432,0.9516
433,0.9509
434,0.9505
435,0.9495
436,0.9521
437,0.9532
438,0.9525
439,0.9525
440,0.9523
441,0.9521
442,0.9518
443,0.9507
444,0.9508
445,0.9513
446,0.9522
447,0.9517
448,0.9514
449,0.9516
450,0.9519
451,0.9516
452,0.9509
453,0.9510
454,0.9514
455,0.9506
456,0.9512
457,0.9512
458,0.9508
459,0.9519
460,0.9517
461,0.9517
462,0.9518
463,0.9514
464,0.9506
465,0.9508
466,0.9504
467,0.9508
468,0.9514
469,0.9513
470,0.9505
471,0.9503
472,0.9504
473,0.9501
474,0.9500
475,0.9508
476,0.9505
477,0.9512
478,0.9517
479,0.9509
480,0.9502
481,0.9504
482,0.9507
483,0.9514
484,0.9510
485,0.9536
486,0.9550
487,0.9537
488,0.9507
489,0.9484
490,0.9480
491,0.9490
492,0.9499
493,0.9505
494,0.9509
495,0.9501
496,0.9499
497,0.9487
498,0.9487
499,0.9476
500,0.9485
501,0.9491
502,0.9495
503,0.9494
504,0.9498
505,0.9500
506,0.9497
507,0.9494
508,0.9496
509,0.9495
510,0.9493
511,0.9481
512,0.9482
513,0.9485
514,0.9486
515,0.9481
516,0.9490
517,0.9489
518,0.9491
519,0.9487
520,0.9484
521,0.9485
522,0.9489
523,0.9487
524,0.9484
525,0.9485
526,0.9490
527,0.9489
528,0.9488
529,0.9483
530,0.9475
531,0.9474
532,0.9469
533,0.9471
534,0.9474
535,0.9476
536,0.9476
537,0.9481
538,0.9480
539,0.9482
540,0.9480
541,0.9475
542,0.9470
543,0.9476
544,0.9483
545,0.9479
546,0.9476
547,0.9489
548,0.9493
549,0.9491
550,0.9484
551,0.9489
552,0.9490
553,0.9492
554,0.9492
555,0.9483
556,0.9470
557,0.9460
558,0.9466
559,0.9482
560,0.9487
561,0.9477
562,0.9462
563,0.9466
564,0.9474
565,0.9473
566,0.9481
567,0.9474
568,0.9471
569,0.9481
570,0.9483
571,0.9462
572,0.9450
573,0.9454
574,0.9452
575,0.9466
576,0.9476
577,0.9499
578,0.9507
579,0.9488
580,0.9457
581,0.9432
582,0.9444
583,0.9448
584,0.9461
585,0.9471
586,0.9466
587,0.9465
588,0.9473
589,0.9482
590,0.9489
591,0.9499
592,0.9508
593,0.9493
594,0.9481
595,0.9464
596,0.9475
597,0.9478
598,0.9463
599,0.9464
600,0.9470
601,0.9471
602,0.9475
603,0.9481
604,0.9478
605,0.9472
606,0.9465
607,0.9463
608,0.9468
609,0.9474
610,0.9464
611,0.9470
612,0.9477
613,0.9467
614,0.9466
615,0.9465
616,0.9469
617,0.9466
618,0.9469
619,0.9472
620,0.9468
621,0.9457
622,0.9454
623,0.9463
624,0.9465
625,0.9465
626,0.9474
627,0.9480
628,0.9461
629,0.9450
630,0.9446
631,0.9454
632,0.9458
633,0.9467
634,0.9465
635,0.9466
636,0.9478
637,0.9478
638,0.9466
639,0.9476
640,0.9470
641,0.9464
642,0.9469
643,0.9475
644,0.9473
645,0.9468
646,0.9463
647,0.9464
648,0.9461
649,0.9454
650,0.9454
651,0.9469
652,0.9474
653,0.9460
654,0.9432
655,0.9313
656,0.9297
657,0.9343
658,0.9434
659,0.9462
660,0.9462
661,0.9461
662,0.9451
663,0.9450
664,0.9451
665,0.9455
666,0.9448
667,0.9454
668,0.9467
669,0.9473
670,0.9468
671,0.9466
672,0.9472
673,0.9470
674,0.9471
675,0.9478
676,0.9480
677,0.9474
678,0.9472
679,0.9464
680,0.9443
681,0.9450
682,0.9451
683,0.9446
684,0.9444
685,0.9449
686,0.9454
687,0.9467
688,0.9468
689,0.9464
690,0.9463
691,0.9463
692,0.9464
693,0.9466
694,0.9470
695,0.9465
696,0.9468
697,0.9474
698,0.9477
699,0.9476
700,0.9472
701,0.9471
702,0.9469
703,0.9474
704,0.9467
705,0.9467
706,0.9464
707,0.9459
708,0.9473
709,0.9481
710,0.9467
711,0.9455
712,0.9460
713,0.9474
714,0.9469
715,0.9469
716,0.9473
717,0.9463
718,0.9461
719,0.9463
720,0.9468
721,0.9464
722,0.9457
723,0.9458
724,0.9461
725,0.9460
726,0.9460
727,0.9451
728,0.9456
729,0.9457
730,0.9472
731,0.9462
732,0.9457
733,0.9453
734,0.9461
735,0.9471
736,0.9471
737,0.9461
738,0.9453
739,0.9448
740,0.9452
741,0.9457
742,0.9454
743,0.9450
744,0.9448
745,0.9466
746,0.9474
747,0.9482
748,0.9464
749,0.9454
750,0.9451
751,0.9448
752,0.9453
753,0.9470
754,0.9474
755,0.9458
756,0.9465
757,0.9466
758,0.9466
759,0.9467
760,0.9470
761,0.9462
762,0.9459
763,0.9455
764,0.9452
765,0.9454
766,0.9452
767,0.9451
768,0.9463
769,0.9478
770,0.9471
771,0.9465
772,0.9459
773,0.9458
774,0.9472
775,0.9472
776,0.9473
777,0.9468
778,0.9468
779,0.9470
780,0.9466
781,0.9471
782,0.9481
783,0.9479
784,0.9468
785,0.9477
786,0.9495
787,0.9478
788,0.9465
789,0.9465
790,0.9475
791,0.9491
792,0.9492
793,0.9466
794,0.9467
795,0.9474
796,0.9474
797,0.9466
798,0.9466
799,0.9459
800,0.9465
801,0.9470
802,0.9461
803,0.9465
804,0.9464
805,0.9474
806,0.9475
807,0.9467
808,0.9478
809,0.9480
810,0.9462
811,0.9460
812,0.9456
813,0.9462
814,0.9474
815,0.9474
816,0.9479
817,0.9484
818,0.9483
819,0.9498
820,0.9496
821,0.9493
822,0.9502
823,0.9497
824,0.9472
825,0.9469
826,0.9466
827,0.9475
828,0.9472
829,0.9473
830,0.9468
831,0.9465
832,0.9473
833,0.9476
834,0.9482
835,0.9474
836,0.9476
837,0.9470
838,0.9462
839,0.9463
840,0.9465
841,0.9473
842,0.9477
843,0.9486
844,0.9490
845,0.9485
846,0.9484
847,0.9478
848,0.9473
849,0.9476
850,0.9465
851,0.9460
852,0.9464
853,0.9467
854,0.9476
855,0.9474
856,0.9478
857,0.9474
858,0.9472
859,0.9484
860,0.9485
861,0.9473
862,0.9471
863,0.9473
864,0.9472
865,0.9464
866,0.9459
867,0.9459
868,0.9467
869,0.9489
870,0.9488
871,0.9489
872,0.9478
873,0.9473
874,0.9478
875,0.9478
876,0.9485
877,0.9478
878,0.9481
879,0.9465
880,0.9457
881,0.9458
882,0.9473
883,0.9483
884,0.9465
885,0.9462
886,0.9461
887,0.9468
888,0.9466
889,0.9462
890,0.9461
891,0.9472
892,0.9468
893,0.9468
894,0.9461
895,0.9465
896,0.9457
897,0.9463
898,0.9455
899,0.9462
