400,0.9541
401,0.9545
402,0.9547
403,0.9553
404,0.9551
405,0.9555
406,0.9549
407,0.9553
408,0.9536
409,0.9545
410,0.9542
411,0.9536
412,0.9530
413,0.9523
414,0.9529
415,0.9549
416,0.9544
417,0.9545
418,0.9528
419,0.9533
420,0.9522
421,0.9522
422,0.9531
423,0.9554
424,0.9551
425,0.9548
426,0.9538
427,0.9515
428,0.9522
429,0.9521
430,0.9512
431,0.9512
432,0.9512
433,0.9510
434,0.9524
435,0.9530
436,0.9545
437,0.9542
438,0.9531
439,0.9538
440,0.9526
441,0.9506
442,0.9498
443,0.9515
444,0.9529
445,0.9522
446,0.9525
447,0.9520
448,0.9509
449,0.9530
450,0.9530
451,0.9521
452,0.9505
453,0.9516
454,0.9529
455,0.9522
456,0.9522
457,0.9498
458,0.9503
459,0.9502
460,0.9504
461,0.9506
462,0.9511
463,0.9499
464,0.9498
465,0.9499
466,0.9502
467,0.9502
468,0.9508
469,0.9496
470,0.9494
471,0.9503
472,0.9504
473,0.9500
474,0.9500
475,0.9509
476,0.9504
477,0.9495
478,0.9498
479,0.9499
480,0.9496
481,0.9501
482,0.9498
483,0.9484
484,0.9479
485,0.9476
486,0.9472
487,0.9475
488,0.9493
489,0.9496
490,0.9499
491,0.9495
492,0.9496
493,0.9498
494,0.9498
495,0.9496
496,0.9504
497,0.9503
498,0.9501
499,0.9492
500,0.9489
501,0.9494
502,0.9497
503,0.9487
504,0.9482
505,0.9494
506,0.9499
507,0.9496
508,0.9490
509,0.9488
510,0.9490
511,0.9489
512,0.9487
513,0.9489
514,0.9486
515,0.9484
516,0.9488
517,0.9484
518,0.9477
519,0.9486
520,0.9487
521,0.9495
522,0.9494
523,0.9482
524,0.9474
525,0.9477
526,0.9495
527,0.9493
528,0.9485
529,0.9482
530,0.9481
531,0.9479
532,0.9471
533,0.9473
534,0.9474
535,0.9476
536,0.9475
537,0.9478
538,0.9478
539,0.9473
540,0.9472
541,0.9470
542,0.9470
543,0.9475
544,0.9479
545,0.9474
546,0.9465
547,0.9477
548,0.9478
549,0.9476
550,0.9483
551,0.9486
552,0.9482
553,0.9490
554,0.9490
555,0.9485
556,0.9477
557,0.9462
558,0.9466
559,0.9473
560,0.9482
561,0.9485
562,0.9476
563,0.9460
564,0.9469
565,0.9469
566,0.9479
567,0.9476
568,0.9475
569,0.9486
570,0.9495
571,0.9474
572,0.9457
573,0.9450
574,0.9448
575,0.9471
576,0.9476
577,0.9494
578,0.9498
579,0.9481
580,0.9454
581,0.9434
582,0.9443
583,0.9457
584,0.9463
585,0.9462
586,0.9453
587,0.9466
588,0.9469
589,0.9471
590,0.9490
591,0.9501
592,0.9507
593,0.9492
594,0.9481
595,0.9465
596,0.9480
597,0.9475
598,0.9462
599,0.9462
600,0.9468
601,0.9474
602,0.9472
603,0.9478
604,0.9475
605,0.9455
606,0.9453
607,0.9458
608,0.9464
609,0.9468
610,0.9468
611,0.9474
612,0.9471
613,0.9462
614,0.9470
615,0.9458
616,0.9464
617,0.9462
618,0.9468
619,0.9473
620,0.9476
621,0.9456
622,0.9447
623,0.9463
624,0.9470
625,0.9462
626,0.9466
627,0.9477
628,0.9470
629,0.9463
630,0.9447
631,0.9445
632,0.9450
633,0.9453
634,0.9454
635,0.9456
636,0.9460
637,0.9468
638,0.9473
639,0.9474
640,0.9467
641,0.9464
642,0.9471
643,0.9478
644,0.9475
645,0.9461
646,0.9461
647,0.9460
648,0.9460
649,0.9455
650,0.9455
651,0.9470
652,0.9472
653,0.9468
654,0.9453
655,0.9413
656,0.9421
657,0.9459
658,0.9486
659,0.9462
660,0.9458
661,0.9467
662,0.9460
663,0.9457
664,0.9466
665,0.9467
666,0.9459
667,0.9457
668,0.9463
669,0.9461
670,0.9455
671,0.9453
672,0.9460
673,0.9475
674,0.9479
675,0.9466
676,0.9463
677,0.9462
678,0.9465
679,0.9465
680,0.9460
681,0.9457
682,0.9456
683,0.9451
684,0.9445
685,0.9440
686,0.9446
687,0.9463
688,0.9463
689,0.9459
690,0.9463
691,0.9456
692,0.9456
693,0.9467
694,0.9471
695,0.9473
696,0.9478
697,0.9478
698,0.9480
699,0.9472
700,0.9475
701,0.9473
702,0.9474
703,0.9465
704,0.9464
705,0.9466
706,0.9453
707,0.9449
708,0.9461
709,0.9473
710,0.9464
711,0.9463
712,0.9466
713,0.9471
714,0.9463
715,0.9459
716,0.9460
717,0.9457
718,0.9457
719,0.9461
720,0.9462
721,0.9455
722,0.9457
723,0.9459
724,0.9466
725,0.9462
726,0.9469
727,0.9456
728,0.9456
729,0.9453
730,0.9468
731,0.9477
732,0.9481
733,0.9464
734,0.9461
735,0.9467
736,0.9466
737,0.9459
738,0.9459
739,0.9466
740,0.9466
741,0.9464
742,0.9460
743,0.9450
744,0.9457
745,0.9473
746,0.9480
747,0.9471
748,0.9465
749,0.9456
750,0.9447
751,0.9445
752,0.9453
753,0.9487
754,0.9493
755,0.9473
756,0.9466
757,0.9460
758,0.9473
759,0.9472
760,0.9465
761,0.9459
762,0.9461
763,0.9455
764,0.9457
765,0.9460
766,0.9460
767,0.9457
768,0.9463
769,0.9465
770,0.9456
771,0.9456
772,0.9453
773,0.9441
774,0.9455
775,0.9465
776,0.9469
777,0.9451
778,0.9454
779,0.9462
780,0.9474
781,0.9475
782,0.9475
783,0.9483
784,0.9467
785,0.9468
786,0.9478
787,0.9468
788,0.9457
789,0.9457
790,0.9459
791,0.9472
792,0.9467
793,0.9459
794,0.9457
795,0.9461
796,0.9467
797,0.9470
798,0.9477
799,0.9459
800,0.9466
801,0.9472
802,0.9473
803,0.9471
804,0.9465
805,0.9461
806,0.9451
807,0.9444
808,0.9456
809,0.9457
810,0.9454
811,0.9459
812,0.9448
813,0.9474
814,0.9487
815,0.9483
816,0.9483
817,0.9491
818,0.9488
819,0.9485
820,0.9475
821,0.9470
822,0.9485
823,0.9476
824,0.9461
825,0.9468
826,0.9461
827,0.9470
828,0.9468
829,0.9470
830,0.9467
831,0.9470
832,0.9471
833,0.9459
834,0.9465
835,0.9466
836,0.9465
837,0.9464
838,0.9460
839,0.9457
840,0.9460
841,0.9470
842,0.9485
843,0.9491
844,0.9487
845,0.9476
846,0.9482
847,0.9469
848,0.9465
849,0.9460
850,0.9442
851,0.9440
852,0.9459
853,0.9472
854,0.9482
855,0.9474
856,0.9460
857,0.9454
858,0.9462
859,0.9473
860,0.9481
861,0.9466
862,0.9461
863,0.9459
864,0.9449
865,0.9450
866,0.9455
867,0.9451
868,0.9458
869,0.9471
870,0.9474
871,0.9490
872,0.9471
873,0.9471
874,0.9469
875,0.9472
876,0.9471
877,0.9455
878,0.9461
879,0.9462
880,0.9460
881,0.9466
882,0.9476
883,0.9485
884,0.9464
885,0.9464
886,0.9459
887,0.9463
888,0.9459
889,0.9461
890,0.9463
891,0.9475
892,0.9467
893,0.9471
894,0.9462
895,0.9465
896,0.9452
897,0.9469
898,0.9463
899,0.9462
