400,0.9565
401,0.9562
402,0.9548
403,0.9542
404,0.9540
405,0.9542
406,0.9540
407,0.9553
408,0.9546
409,0.9544
410,0.9538
411,0.9535
412,0.9541
413,0.9534
414,0.9523
415,0.9519
416,0.9525
417,0.9546
418,0.9543
419,0.9533
420,0.9529
421,0.9520
422,0.9540
423,0.9556
424,0.9555
425,0.9537
426,0.9524
427,0.9508
428,0.9527
429,0.9521
430,0.9511
431,0.9498
432,0.9520
433,0.9505
434,0.9511
435,0.9511
436,0.9531
437,0.9547
438,0.9536
439,0.9533
440,0.9524
441,0.9515
442,0.9511
443,0.9516
444,0.9518
445,0.9516
446,0.9517
447,0.9527
448,0.9523
449,0.9515
450,0.9519
451,0.9524
452,0.9519
453,0.9516
454,0.9522
455,0.9507
456,0.9509
457,0.9507
458,0.9507
459,0.9527
460,0.9528
461,0.9524
462,0.9516
463,0.9508
464,0.9510
465,0.9506
466,0.9510
467,0.9514
468,0.9516
469,0.9508
470,0.9503
471,0.9512
472,0.9505
473,0.9512
474,0.9511
475,0.9509
476,0.9504
477,0.9518
478,0.9519
479,0.9510
480,0.9512
481,0.9510
482,0.9509
483,0.9513
484,0.9517
485,0.9545
486,0.9554
487,0.9538
488,0.9515
489,0.9490
490,0.9487
491,0.9493
492,0.9500
493,0.9507
494,0.9513
495,0.9503
496,0.9497
497,0.9492
498,0.9491
499,0.9478
500,0.9486
501,0.9493
502,0.9501
503,0.9500
504,0.9499
505,0.9499
506,0.9495
507,0.9489
508,0.9489
509,0.9490
510,0.9489
511,0.9482
512,0.9482
513,0.9486
514,0.9478
515,0.9476
516,0.9485
517,0.9483
518,0.9492
519,0.9488
520,0.9495
521,0.9494
522,0.9494
523,0.9489
524,0.9487
525,0.9484
526,0.9489
527,0.9487
528,0.9488
529,0.9480
530,0.9472
531,0.9472
532,0.9474
533,0.9468
534,0.9474
535,0.9471
536,0.9474
537,0.9484
538,0.9478
539,0.9479
540,0.9481
541,0.9476
542,0.9472
543,0.9472
544,0.9481
545,0.9478
546,0.9479
547,0.9486
548,0.9494
549,0.9487
550,0.9483
551,0.9479
552,0.9489
553,0.9490
554,0.9485
555,0.9475
556,0.9467
557,0.9472
558,0.9475
559,0.9483
560,0.9489
561,0.9481
562,0.9464
563,0.9472
564,0.9477
565,0.9475
566,0.9471
567,0.9468
568,0.9470
569,0.9474
570,0.9473
571,0.9464
572,0.9462
573,0.9467
574,0.9466
575,0.9477
576,0.9479
577,0.9487
578,0.9483
579,0.9481
580,0.9473
581,0.9465
582,0.9471
583,0.9470
584,0.9469
585,0.9472
586,0.9469
587,0.9476
588,0.9481
589,0.9492
590,0.9488
591,0.9490
592,0.9462
593,0.9458
594,0.9461
595,0.9482
596,0.9491
597,0.9491
598,0.9490
599,0.9492
600,0.9486
601,0.9477
602,0.9476
603,0.9470
604,0.9472
605,0.9485
606,0.9485
607,0.9490
608,0.9482
609,0.9483
610,0.9480
611,0.9480
612,0.9480
613,0.9471
614,0.9471
615,0.9467
616,0.9467
617,0.9470
618,0.9474
619,0.9471
620,0.9471
621,0.9475
622,0.9472
623,0.9470
624,0.9462
625,0.9458
626,0.9467
627,0.9478
628,0.9464
629,0.9455
630,0.9458
631,0.9462
632,0.9461
633,0.9465
634,0.9467
635,0.9466
636,0.9475
637,0.9474
638,0.9471
639,0.9475
640,0.9476
641,0.9470
642,0.9471
643,0.9473
644,0.9477
645,0.9472
646,0.9466
647,0.9465
648,0.9463
649,0.9454
650,0.9453
651,0.9463
652,0.9465
653,0.9453
654,0.9488
655,0.9683
656,0.9748
657,0.9727
658,0.9565
659,0.9460
660,0.9464
661,0.9467
662,0.9456
663,0.9446
664,0.9449
665,0.9457
666,0.9455
667,0.9460
668,0.9472
669,0.9477
670,0.9476
671,0.9472
672,0.9474
673,0.9475
674,0.9475
675,0.9478
676,0.9477
677,0.9474
678,0.9469
679,0.9466
680,0.9452
681,0.9457
682,0.9459
683,0.9450
684,0.9443
685,0.9444
686,0.9442
687,0.9453
688,0.9464
689,0.9465
690,0.9464
691,0.9470
692,0.9473
693,0.9476
694,0.9474
695,0.9460
696,0.9464
697,0.9464
698,0.9466
699,0.9477
700,0.9480
701,0.9475
702,0.9475
703,0.9473
704,0.9474
705,0.9471
706,0.9470
707,0.9460
708,0.9463
709,0.9472
710,0.9461
711,0.9448
712,0.9452
713,0.9466
714,0.9470
715,0.9470
716,0.9467
717,0.9456
718,0.9460
719,0.9466
720,0.9470
721,0.9471
722,0.9468
723,0.9461
724,0.9461
725,0.9457
726,0.9450
727,0.9438
728,0.9447
729,0.9455
730,0.9468
731,0.9463
732,0.9465
733,0.9455
734,0.9460
735,0.9464
736,0.9462
737,0.9454
738,0.9446
739,0.9454
740,0.9450
741,0.9452
742,0.9449
743,0.9455
744,0.9450
745,0.9460
746,0.9474
747,0.9481
748,0.9469
749,0.9463
750,0.9462
751,0.9460
752,0.9454
753,0.9467
754,0.9471
755,0.9471
756,0.9467
757,0.9459
758,0.9463
759,0.9463
760,0.9457
761,0.9459
762,0.9459
763,0.9467
764,0.9462
765,0.9460
766,0.9454
767,0.9450
768,0.9460
769,0.9469
770,0.9477
771,0.9491
772,0.9482
773,0.9478
774,0.9483
775,0.9488
776,0.9482
777,0.9473
778,0.9471
779,0.9471
780,0.9479
781,0.9491
782,0.9477
783,0.9480
784,0.9472
785,0.9470
786,0.9486
787,0.9470
788,0.9455
789,0.9463
790,0.9480
791,0.9491
792,0.9489
793,0.9480
794,0.9477
795,0.9472
796,0.9479
797,0.9472
798,0.9461
799,0.9460
800,0.9472
801,0.9479
802,0.9469
803,0.9462
804,0.9460
805,0.9455
806,0.9462
807,0.9461
808,0.9474
809,0.9472
810,0.9451
811,0.9455
812,0.9449
813,0.9463
814,0.9479
815,0.9477
816,0.9481
817,0.9480
818,0.9480
819,0.9485
820,0.9485
821,0.9486
822,0.9503
823,0.9493
824,0.9475
825,0.9477
826,0.9469
827,0.9468
828,0.9456
829,0.9463
830,0.9464
831,0.9454
832,0.9463
833,0.9460
834,0.9467
835,0.9467
836,0.9489
837,0.9482
838,0.9464
839,0.9461
840,0.9471
841,0.9486
842,0.9484
843,0.9500
844,0.9499
845,0.9494
846,0.9492
847,0.9484
848,0.9473
849,0.9475
850,0.9469
851,0.9459
852,0.9462
853,0.9468
854,0.9476
855,0.9471
856,0.9468
857,0.9465
858,0.9463
859,0.9470
860,0.9482
861,0.9465
862,0.9462
863,0.9458
864,0.9452
865,0.9447
866,0.9444
867,0.9447
868,0.9468
869,0.9476
870,0.9483
871,0.9490
872,0.9481
873,0.9479
874,0.9475
875,0.9477
876,0.9486
877,0.9467
878,0.9478
879,0.9473
880,0.9463
881,0.9461
882,0.9483
883,0.9489
884,0.9460
885,0.9456
886,0.9456
887,0.9460
888,0.9455
889,0.9460
890,0.9466
891,0.9477
892,0.9478
893,0.9465
894,0.9466
895,0.9459
896,0.9458
897,0.9461
898,0.9454
899,0.9459
