400,0.9535
401,0.9527
402,0.9518
403,0.9527
404,0.9529
405,0.9531
406,0.9530
407,0.9538
408,0.9518
409,0.9519
410,0.9510
411,0.9509
412,0.9510
413,0.9511
414,0.9518
415,0.9510
416,0.9510
417,0.9510
418,0.9505
419,0.9505
420,0.9508
421,0.9512
422,0.9521
423,0.9514
424,0.9508
425,0.9501
426,0.9495
427,0.9495
428,0.9515
429,0.9512
430,0.9507
431,0.9501
432,0.9509
433,0.9508
434,0.9505
435,0.9498
436,0.9505
437,0.9521
438,0.9517
439,0.9515
440,0.9515
441,0.9511
442,0.9512
443,0.9507
444,0.9503
445,0.9504
446,0.9499
447,0.9516
448,0.9511
449,0.9513
450,0.9502
451,0.9505
452,0.9497
453,0.9502
454,0.9503
455,0.9492
456,0.9509
457,0.9509
458,0.9508
459,0.9501
460,0.9490
461,0.9494
462,0.9502
463,0.9506
464,0.9479
465,0.9466
466,0.9466
467,0.9497
468,0.9495
469,0.9495
470,0.9493
471,0.9503
472,0.9500
473,0.9497
474,0.9496
475,0.9495
476,0.9484
477,0.9503
478,0.9501
479,0.9491
480,0.9497
481,0.9507
482,0.9503
483,0.9511
484,0.9513
485,0.9599
486,0.9637
487,0.9602
488,0.9519
489,0.9487
490,0.9483
491,0.9492
492,0.9489
493,0.9490
494,0.9501
495,0.9495
496,0.9485
497,0.9477
498,0.9476
499,0.9463
500,0.9466
501,0.9467
502,0.9479
503,0.9487
504,0.9493
505,0.9484
506,0.9475
507,0.9471
508,0.9479
509,0.9478
510,0.9480
511,0.9474
512,0.9473
513,0.9473
514,0.9471
515,0.9471
516,0.9471
517,0.9473
518,0.9475
519,0.9474
520,0.9477
521,0.9483
522,0.9487
523,0.9482
524,0.9474
525,0.9470
526,0.9474
527,0.9475
528,0.9473
529,0.9478
530,0.9472
531,0.9465
532,0.9471
533,0.9467
534,0.9469
535,0.9469
536,0.9465
537,0.9471
538,0.9471
539,0.9472
540,0.9470
541,0.9466
542,0.9463
543,0.9468
544,0.9475
545,0.9478
546,0.9473
547,0.9477
548,0.9483
549,0.9482
550,0.9480
551,0.9478
552,0.9475
553,0.9473
554,0.9474
555,0.9473
556,0.9468
557,0.9473
558,0.9470
559,0.9472
560,0.9471
561,0.9473
562,0.9465
563,0.9459
564,0.9461
565,0.9463
566,0.9466
567,0.9468
568,0.9473
569,0.9479
570,0.9486
571,0.9477
572,0.9485
573,0.9487
574,0.9482
575,0.9480
576,0.9472
577,0.9452
578,0.9437
579,0.9439
580,0.9462
581,0.9469
582,0.9468
583,0.9460
584,0.9457
585,0.9452
586,0.9456
587,0.9477
588,0.9485
589,0.9489
590,0.9492
591,0.9491
592,0.9452
593,0.9445
594,0.9455
595,0.9480
596,0.9488
597,0.9500
598,0.9513
599,0.9516
600,0.9481
601,0.9465
602,0.9462
603,0.9465
604,0.9465
605,0.9482
606,0.9486
607,0.9488
608,0.9481
609,0.9470
610,0.9458
611,0.9469
612,0.9488
613,0.9485
614,0.9475
615,0.9461
616,0.9467
617,0.9479
618,0.9477
619,0.9476
620,0.9480
621,0.9486
622,0.9472
623,0.9459
624,0.9447
625,0.9450
626,0.9463
627,0.9479
628,0.9469
629,0.9461
630,0.9458
631,0.9458
632,0.9452
633,0.9458
634,0.9461
635,0.9461
636,0.9470
637,0.9471
638,0.9471
639,0.9476
640,0.9475
641,0.9470
642,0.9470
643,0.9469
644,0.9465
645,0.9468
646,0.9462
647,0.9455
648,0.9460
649,0.9459
650,0.9450
651,0.9459
652,0.9467
653,0.9461
654,0.9527
655,0.9845
656,0.9917
657,0.9864
658,0.9603
659,0.9466
660,0.9461
661,0.9461
662,0.9457
663,0.9456
664,0.9459
665,0.9460
666,0.9458
667,0.9461
668,0.9467
669,0.9473
670,0.9469
671,0.9472
672,0.9472
673,0.9475
674,0.9471
675,0.9477
676,0.9473
677,0.9464
678,0.9465
679,0.9458
680,0.9452
681,0.9457
682,0.9460
683,0.9458
684,0.9456
685,0.9457
686,0.9449
687,0.9458
688,0.9456
689,0.9458
690,0.9459
691,0.9463
692,0.9470
693,0.9475
694,0.9475
695,0.9468
696,0.9463
697,0.9465
698,0.9462
699,0.9460
700,0.9465
701,0.9467
702,0.9469
703,0.9470
704,0.9466
705,0.9462
706,0.9466
707,0.9461
708,0.9462
709,0.9462
710,0.9456
711,0.9448
712,0.9449
713,0.9463
714,0.9470
715,0.9472
716,0.9465
717,0.9457
718,0.9453
719,0.9457
720,0.9466
721,0.9465
722,0.9457
723,0.9463
724,0.9468
725,0.9458
726,0.9459
727,0.9448
728,0.9446
729,0.9446
730,0.9456
731,0.9459
732,0.9459
733,0.9458
734,0.9461
735,0.9464
736,0.9463
737,0.9455
738,0.9453
739,0.9460
740,0.9468
741,0.9463
742,0.9460
743,0.9462
744,0.9459
745,0.9461
746,0.9467
747,0.9468
748,0.9462
749,0.9457
750,0.9455
751,0.9453
752,0.9457
753,0.9477
754,0.9477
755,0.9468
756,0.9469
757,0.9460
758,0.9468
759,0.9464
760,0.9462
761,0.9460
762,0.9463
763,0.9457
764,0.9456
765,0.9464
766,0.9458
767,0.9452
768,0.9458
769,0.9468
770,0.9473
771,0.9479
772,0.9475
773,0.9463
774,0.9472
775,0.9481
776,0.9479
777,0.9469
778,0.9471
779,0.9468
780,0.9470
781,0.9473
782,0.9475
783,0.9477
784,0.9466
785,0.9476
786,0.9486
787,0.9471
788,0.9454
789,0.9460
790,0.9472
791,0.9484
792,0.9483
793,0.9477
794,0.9477
795,0.9477
796,0.9473
797,0.9477
798,0.9463
799,0.9453
800,0.9461
801,0.9478
802,0.9469
803,0.9467
804,0.9466
805,0.9466
806,0.9464
807,0.9458
808,0.9477
809,0.9482
810,0.9466
811,0.9463
812,0.9459
813,0.9463
814,0.9472
815,0.9468
816,0.9471
817,0.9478
818,0.9475
819,0.9480
820,0.9484
821,0.9490
822,0.9493
823,0.9482
824,0.9464
825,0.9468
826,0.9463
827,0.9471
828,0.9454
829,0.9458
830,0.9456
831,0.9456
832,0.9466
833,0.9461
834,0.9473
835,0.9474
836,0.9484
837,0.9481
838,0.9468
839,0.9469
840,0.9478
841,0.9480
842,0.9478
843,0.9488
844,0.9499
845,0.9487
846,0.9486
847,0.9481
848,0.9474
849,0.9479
850,0.9468
851,0.9462
852,0.9471
853,0.9479
854,0.9484
855,0.9475
856,0.9475
857,0.9465
858,0.9458
859,0.9460
860,0.9463
861,0.9464
862,0.9466
863,0.9479
864,0.9475
865,0.9468
866,0.9466
867,0.9478
868,0.9481
869,0.9497
870,0.9497
871,0.9504
872,0.9482
873,0.9481
874,0.9479
875,0.9485
876,0.9481
877,0.9467
878,0.9465
879,0.9461
880,0.9452
881,0.9457
882,0.9473
883,0.9481
884,0.9466
885,0.9465
886,0.9470
887,0.9477
888,0.9472
889,0.9463
890,0.9459
891,0.9475
892,0.9477
893,0.9475
894,0.9472
895,0.9473
896,0.9466
897,0.9465
898,0.9460
899,0.9454
