400,0.9431
401,0.9483
402,0.9516
403,0.9540
404,0.9566
405,0.9563
406,0.9554
407,0.9545
408,0.9496
409,0.9472
410,0.9467
411,0.9470
412,0.9478
413,0.9487
414,0.9505
415,0.9544
416,0.9567
417,0.9582
418,0.9569
419,0.9535
420,0.9527
421,0.9511
422,0.9479
423,0.9455
424,0.9450
425,0.9451
426,0.9470
427,0.9502
428,0.9541
429,0.9562
430,0.9572
431,0.9564
432,0.9559
433,0.9517
434,0.9486
435,0.9472
436,0.9480
437,0.9453
438,0.9455
439,0.9466
440,0.9480
441,0.9514
442,0.9522
443,0.9569
444,0.9578
445,0.9580
446,0.9588
447,0.9552
448,0.9520
449,0.9506
450,0.9477
451,0.9466
452,0.9455
453,0.9438
454,0.9480
455,0.9487
456,0.9493
457,0.9516
458,0.9560
459,0.9574
460,0.9566
461,0.9568
462,0.9555
463,0.9536
464,0.9511
465,0.9496
466,0.9471
467,0.9464
468,0.9465
469,0.9482
470,0.9478
471,0.9487
472,0.9504
473,0.9521
474,0.9538
475,0.9527
476,0.9532
477,0.9552
478,0.9557
479,0.9545
480,0.9533
481,0.9548
482,0.9535
483,0.9485
484,0.9444
485,0.9446
486,0.9471
487,0.9472
488,0.9474
489,0.9491
490,0.9518
491,0.9538
492,0.9545
493,0.9580
494,0.9603
495,0.9597
496,0.9550
497,0.9543
498,0.9524
499,0.9506
500,0.9489
501,0.9486
502,0.9468
503,0.9455
504,0.9447
505,0.9431
506,0.9458
507,0.9469
508,0.9502
509,0.9511
510,0.9532
511,0.9551
512,0.9568
513,0.9575
514,0.9591
515,0.9598
516,0.9588
517,0.9560
518,0.9541
519,0.9520
520,0.9473
521,0.9474
522,0.9474
523,0.9469
524,0.9469
525,0.9481
526,0.9459
527,0.9469
528,0.9489
529,0.9505
530,0.9514
531,0.9533
532,0.9545
533,0.9550
534,0.9561
535,0.9576
536,0.9573
537,0.9586
538,0.9557
539,0.9540
540,0.9545
541,0.9513
542,0.9486
543,0.9449
544,0.9442
545,0.9447
546,0.9467
547,0.9467
548,0.9465
549,0.9480
550,0.9496
551,0.9488
552,0.9495
553,0.9530
554,0.9537
555,0.9559
556,0.9570
557,0.9591
558,0.9615
559,0.9601
560,0.9585
561,0.9574
562,0.9565
563,0.9583
564,0.9533
565,0.9503
566,0.9492
567,0.9492
568,0.9494
569,0.9521
570,0.9520
571,0.9508
572,0.9498
573,0.9478
574,0.9485
575,0.9474
576,0.9499
577,0.9508
578,0.9533
579,0.9526
580,0.9558
581,0.9560
582,0.9560
583,0.9583
584,0.9581
585,0.9590
586,0.9601
587,0.9589
588,0.9554
589,0.9555
590,0.9543
591,0.9520
592,0.9486
593,0.9474
594,0.9485
595,0.9470
596,0.9450
597,0.9471
598,0.9480
599,0.9462
600,0.9464
601,0.9470
602,0.9488
603,0.9484
604,0.9475
605,0.9524
606,0.9561
607,0.9559
608,0.9575
609,0.9548
610,0.9588
611,0.9601
612,0.9603
613,0.9566
614,0.9547
615,0.9568
616,0.9582
617,0.9553
618,0.9550
619,0.9522
620,0.9498
621,0.9487
622,0.9489
623,0.9493
624,0.9469
625,0.9463
626,0.9469
627,0.9444
628,0.9450
629,0.9457
630,0.9436
631,0.9459
632,0.9473
633,0.9484
634,0.9505
635,0.9537
636,0.9546
637,0.9549
638,0.9540
639,0.9533
640,0.9567
641,0.9593
642,0.9586
643,0.9604
644,0.9614
645,0.9599
646,0.9601
647,0.9592
648,0.9575
649,0.9570
650,0.9552
651,0.9556
652,0.9512
653,0.9520
654,0.9494
655,0.9485
656,0.9501
657,0.9493
658,0.9488
659,0.9460
660,0.9471
661,0.9477
662,0.9473
663,0.9475
664,0.9450
665,0.9452
666,0.9482
667,0.9479
668,0.9492
669,0.9500
670,0.9506
671,0.9535
672,0.9524
673,0.9525
674,0.9535
675,0.9575
676,0.9568
677,0.9587
678,0.9600
679,0.9607
680,0.9584
681,0.9560
682,0.9531
683,0.9538
684,0.9548
685,0.9549
686,0.9569
687,0.9546
688,0.9515
689,0.9496
690,0.9489
691,0.9438
692,0.9445
693,0.9499
694,0.9495
695,0.9473
696,0.9446
697,0.9469
698,0.9495
699,0.9467
700,0.9447
701,0.9438
702,0.9472
703,0.9482
704,0.9483
705,0.9504
706,0.9517
707,0.9495
708,0.9454
709,0.9488
710,0.9526
711,0.9537
712,0.9552
713,0.9539
714,0.9535
715,0.9541
716,0.9545
717,0.9551
718,0.9539
719,0.9526
720,0.9569
721,0.9580
722,0.9554
723,0.9525
724,0.9501
725,0.9512
726,0.9523
727,0.9493
728,0.9494
729,0.9515
730,0.9532
731,0.9492
732,0.9480
733,0.9459
734,0.9447
735,0.9435
736,0.9449
737,0.9433
738,0.9437
739,0.9442
740,0.9464
741,0.9481
742,0.9469
743,0.9468
744,0.9470
745,0.9470
746,0.9501
747,0.9551
748,0.9546
749,0.9536
750,0.9532
751,0.9529
752,0.9522
753,0.9507
754,0.9528
755,0.9557
756,0.9549
757,0.9560
758,0.9578
759,0.9641
760,0.9632
761,0.9601
762,0.9599
763,0.9576
764,0.9572
765,0.9576
766,0.9573
767,0.9545
768,0.9539
769,0.9533
770,0.9504
771,0.9516
772,0.9525
773,0.9517
774,0.9503
775,0.9460
776,0.9463
777,0.9470
778,0.9436
779,0.9435
780,0.9461
781,0.9492
782,0.9462
783,0.9459
784,0.9469
785,0.9466
786,0.9457
787,0.9453
788,0.9443
789,0.9464
790,0.9471
791,0.9453
792,0.9473
793,0.9529
794,0.9523
795,0.9466
796,0.9444
797,0.9455
798,0.9490
799,0.9531
800,0.9553
801,0.9538
802,0.9534
803,0.9522
804,0.9540
805,0.9591
806,0.9613
807,0.9596
808,0.9560
809,0.9564
810,0.9585
811,0.9621
812,0.9600
813,0.9584
814,0.9589
815,0.9602
816,0.9581
817,0.9557
818,0.9615
819,0.9618
820,0.9606
821,0.9570
822,0.9537
823,0.9530
824,0.9585
825,0.9602
826,0.9577
827,0.9573
828,0.9565
829,0.9548
830,0.9525
831,0.9537
832,0.9532
833,0.9499
834,0.9457
835,0.9445
836,0.9435
837,0.9448
838,0.9429
839,0.9424
840,0.9444
841,0.9450
842,0.9442
843,0.9466
844,0.9482
845,0.9494
846,0.9493
847,0.9509
848,0.9489
849,0.9470
850,0.9454
851,0.9476
852,0.9497
853,0.9512
854,0.9515
855,0.9523
856,0.9515
857,0.9503
858,0.9503
859,0.9520
860,0.9530
861,0.9561
862,0.9565
863,0.9559
864,0.9551
865,0.9579
866,0.9568
867,0.9563
868,0.9558
869,0.9573
870,0.9564
871,0.9535
872,0.9553
873,0.9570
874,0.9603
875,0.9628
876,0.9587
877,0.9567
878,0.9594
879,0.9566
880,0.9536
881,0.9579
882,0.9563
883,0.9558
884,0.9555
885,0.9558
886,0.9575
887,0.9563
888,0.9541
889,0.9503
890,0.9467
891,0.9439
892,0.9450
893,0.9441
894,0.9428
895,0.9435
896,0.9479
897,0.9475
898,0.9435
899,0.9427
