400,0.9582
401,0.9590
402,0.9593
403,0.9588
404,0.9594
405,0.9593
406,0.9581
407,0.9583
408,0.9588
409,0.9590
410,0.9597
411,0.9604
412,0.9592
413,0.9586
414,0.9584
415,0.9585
416,0.9589
417,0.9585
418,0.9576
419,0.9569
420,0.9573
421,0.9572
422,0.9572
423,0.9554
424,0.9559
425,0.9571
426,0.9565
427,0.9558
428,0.9562
429,0.9555
430,0.9562
431,0.9552
432,0.9553
433,0.9545
434,0.9551
435,0.9548
436,0.9549
437,0.9561
438,0.9545
439,0.9544
440,0.9539
441,0.9545
442,0.9538
443,0.9528
444,0.9529
445,0.9535
446,0.9541
447,0.9537
448,0.9523
449,0.9523
450,0.9533
451,0.9540
452,0.9537
453,0.9526
454,0.9509
455,0.9510
456,0.9517
457,0.9510
458,0.9503
459,0.9515
460,0.9536
461,0.9522
462,0.9498
463,0.9497
464,0.9532
465,0.9535
466,0.9538
467,0.9498
468,0.9491
469,0.9499
470,0.9506
471,0.9509
472,0.9502
473,0.9501
474,0.9501
475,0.9502
476,0.9502
477,0.9490
478,0.9495
479,0.9493
480,0.9480
481,0.9464
482,0.9463
483,0.9462
484,0.9453
485,0.9369
486,0.9346
487,0.9372
488,0.9466
489,0.9497
490,0.9495
491,0.9489
492,0.9483
493,0.9475
494,0.9471
495,0.9476
496,0.9482
497,0.9481
498,0.9480
499,0.9486
500,0.9489
501,0.9491
502,0.9477
503,0.9468
504,0.9467
505,0.9481
506,0.9479
507,0.9475
508,0.9474
509,0.9474
510,0.9473
511,0.9470
512,0.9465
513,0.9462
514,0.9471
515,0.9471
516,0.9468
517,0.9468
518,0.9479
519,0.9482
520,0.9469
521,0.9473
522,0.9467
523,0.9470
524,0.9475
525,0.9477
526,0.9469
527,0.9466
528,0.9474
529,0.9479
530,0.9469
531,0.9472
532,0.9465
533,0.9466
534,0.9464
535,0.9464
536,0.9471
537,0.9479
538,0.9475
539,0.9477
540,0.9489
541,0.9491
542,0.9498
543,0.9496
544,0.9490
545,0.9480
546,0.9486
547,0.9499
548,0.9501
549,0.9495
550,0.9484
551,0.9478
552,0.9494
553,0.9496
554,0.9484
555,0.9479
556,0.9471
557,0.9473
558,0.9476
559,0.9484
560,0.9506
561,0.9489
562,0.9479
563,0.9494
564,0.9497
565,0.9500
566,0.9497
567,0.9489
568,0.9477
569,0.9468
570,0.9454
571,0.9448
572,0.9439
573,0.9443
574,0.9455
575,0.9481
576,0.9502
577,0.9547
578,0.9574
579,0.9564
580,0.9503
581,0.9468
582,0.9488
583,0.9501
584,0.9514
585,0.9534
586,0.9519
587,0.9491
588,0.9493
589,0.9507
590,0.9503
591,0.9512
592,0.9558
593,0.9558
594,0.9532
595,0.9498
596,0.9494
597,0.9486
598,0.9465
599,0.9471
600,0.9509
601,0.9516
602,0.9523
603,0.9525
604,0.9522
605,0.9516
606,0.9506
607,0.9507
608,0.9509
609,0.9525
610,0.9544
611,0.9546
612,0.9537
613,0.9528
614,0.9530
615,0.9539
616,0.9535
617,0.9527
618,0.9538
619,0.9543
620,0.9529
621,0.9543
622,0.9553
623,0.9539
624,0.9537
625,0.9552
626,0.9551
627,0.9549
628,0.9536
629,0.9531
630,0.9540
631,0.9546
632,0.9545
633,0.9556
634,0.9556
635,0.9554
636,0.9554
637,0.9547
638,0.9536
639,0.9547
640,0.9559
641,0.9557
642,0.9553
643,0.9557
644,0.9565
645,0.9568
646,0.9565
647,0.9555
648,0.9560
649,0.9559
650,0.9556
651,0.9556
652,0.9553
653,0.9554
654,0.9562
655,0.9601
656,0.9617
657,0.9612
658,0.9577
659,0.9571
660,0.9578
661,0.9571
662,0.9570
663,0.9559
664,0.9554
665,0.9562
666,0.9559
667,0.9563
668,0.9577
669,0.9590
670,0.9581
671,0.9581
672,0.9578
673,0.9573
674,0.9581
675,0.9599
676,0.9600
677,0.9596
678,0.9580
679,0.9580
680,0.9573
681,0.9567
682,0.9579
683,0.9579
684,0.9573
685,0.9581
686,0.9583
687,0.9575
688,0.9568
689,0.9568
690,0.9575
691,0.9572
692,0.9579
693,0.9589
694,0.9594
695,0.9576
696,0.9567
697,0.9564
698,0.9574
699,0.9580
700,0.9584
701,0.9594
702,0.9590
703,0.9587
704,0.9582
705,0.9595
706,0.9597
707,0.9583
708,0.9578
709,0.9585
710,0.9592
711,0.9589
712,0.9596
713,0.9605
714,0.9596
715,0.9597
716,0.9591
717,0.9591
718,0.9594
719,0.9599
720,0.9608
721,0.9604
722,0.9598
723,0.9571
724,0.9565
725,0.9583
726,0.9588
727,0.9589
728,0.9593
729,0.9600
730,0.9596
731,0.9596
732,0.9590
733,0.9582
734,0.9594
735,0.9602
736,0.9598
737,0.9594
738,0.9599
739,0.9590
740,0.9595
741,0.9593
742,0.9581
743,0.9589
744,0.9589
745,0.9595
746,0.9595
747,0.9590
748,0.9594
749,0.9602
750,0.9609
751,0.9602
752,0.9587
753,0.9597
754,0.9599
755,0.9602
756,0.9593
757,0.9596
758,0.9591
759,0.9596
760,0.9600
761,0.9602
762,0.9594
763,0.9589
764,0.9592
765,0.9590
766,0.9590
767,0.9599
768,0.9613
769,0.9610
770,0.9608
771,0.9601
772,0.9598
773,0.9601
774,0.9602
775,0.9604
776,0.9603
777,0.9602
778,0.9607
779,0.9599
780,0.9596
781,0.9601
782,0.9591
783,0.9596
784,0.9611
785,0.9615
786,0.9614
787,0.9604
788,0.9604
789,0.9605
790,0.9611
791,0.9610
792,0.9605
793,0.9592
794,0.9585
795,0.9590
796,0.9594
797,0.9588
798,0.9594
799,0.9610
800,0.9614
801,0.9621
802,0.9608
803,0.9601
804,0.9598
805,0.9596
806,0.9604
807,0.9609
808,0.9603
809,0.9598
810,0.9592
811,0.9594
812,0.9585
813,0.9582
814,0.9589
815,0.9612
816,0.9616
817,0.9596
818,0.9589
819,0.9604
820,0.9596
821,0.9594
822,0.9592
823,0.9600
824,0.9611
825,0.9612
826,0.9602
827,0.9605
828,0.9593
829,0.9599
830,0.9594
831,0.9596
832,0.9606
833,0.9620
834,0.9617
835,0.9620
836,0.9627
837,0.9623
838,0.9605
839,0.9597
840,0.9600
841,0.9613
842,0.9613
843,0.9594
844,0.9593
845,0.9587
846,0.9593
847,0.9599
848,0.9600
849,0.9609
850,0.9618
851,0.9613
852,0.9595
853,0.9590
854,0.9592
855,0.9607
856,0.9594
857,0.9588
858,0.9589
859,0.9604
860,0.9604
861,0.9614
862,0.9616
863,0.9589
864,0.9574
865,0.9567
866,0.9565
867,0.9574
868,0.9591
869,0.9600
870,0.9589
871,0.9573
872,0.9565
873,0.9572
874,0.9578
875,0.9585
876,0.9574
877,0.9575
878,0.9582
879,0.9593
880,0.9574
881,0.9585
882,0.9585
883,0.9587
884,0.9557
885,0.9558
886,0.9560
887,0.9568
888,0.9568
889,0.9563
890,0.9580
891,0.9589
892,0.9596
893,0.9583
894,0.9577
895,0.9583
896,0.9601
897,0.9602
898,0.9600
899,0.9593
