400,0.9597
401,0.9606
402,0.9594
403,0.9587
404,0.9587
405,0.9587
406,0.9582
407,0.9586
408,0.9600
409,0.9598
410,0.9595
411,0.9598
412,0.9600
413,0.9582
414,0.9572
415,0.9586
416,0.9591
417,0.9588
418,0.9583
419,0.9583
420,0.9577
421,0.9570
422,0.9573
423,0.9578
424,0.9571
425,0.9574
426,0.9559
427,0.9559
428,0.9567
429,0.9558
430,0.9560
431,0.9553
432,0.9566
433,0.9543
434,0.9542
435,0.9543
436,0.9557
437,0.9550
438,0.9544
439,0.9549
440,0.9540
441,0.9546
442,0.9543
443,0.9537
444,0.9531
445,0.9528
446,0.9545
447,0.9543
448,0.9526
449,0.9529
450,0.9527
451,0.9529
452,0.9534
453,0.9528
454,0.9499
455,0.9504
456,0.9505
457,0.9502
458,0.9499
459,0.9521
460,0.9527
461,0.9530
462,0.9510
463,0.9511
464,0.9533
465,0.9536
466,0.9536
467,0.9495
468,0.9493
469,0.9501
470,0.9509
471,0.9503
472,0.9494
473,0.9498
474,0.9497
475,0.9502
476,0.9506
477,0.9497
478,0.9501
479,0.9498
480,0.9487
481,0.9474
482,0.9475
483,0.9471
484,0.9467
485,0.9390
486,0.9359
487,0.9385
488,0.9469
489,0.9486
490,0.9492
491,0.9486
492,0.9483
493,0.9484
494,0.9483
495,0.9482
496,0.9477
497,0.9477
498,0.9479
499,0.9482
500,0.9483
501,0.9485
502,0.9473
503,0.9468
504,0.9472
505,0.9478
506,0.9481
507,0.9480
508,0.9478
509,0.9471
510,0.9470
511,0.9473
512,0.9471
513,0.9467
514,0.9468
515,0.9468
516,0.9473
517,0.9471
518,0.9476
519,0.9471
520,0.9459
521,0.9467
522,0.9469
523,0.9476
524,0.9479
525,0.9482
526,0.9473
527,0.9469
528,0.9474
529,0.9479
530,0.9468
531,0.9466
532,0.9464
533,0.9466
534,0.9467
535,0.9466
536,0.9478
537,0.9484
538,0.9479
539,0.9476
540,0.9489
541,0.9489
542,0.9486
543,0.9486
544,0.9488
545,0.9485
546,0.9486
547,0.9496
548,0.9501
549,0.9494
550,0.9487
551,0.9482
552,0.9497
553,0.9498
554,0.9493
555,0.9483
556,0.9475
557,0.9477
558,0.9487
559,0.9497
560,0.9506
561,0.9492
562,0.9480
563,0.9487
564,0.9503
565,0.9506
566,0.9509
567,0.9498
568,0.9476
569,0.9465
570,0.9449
571,0.9450
572,0.9456
573,0.9463
574,0.9459
575,0.9482
576,0.9503
577,0.9553
578,0.9578
579,0.9571
580,0.9515
581,0.9487
582,0.9504
583,0.9515
584,0.9515
585,0.9534
586,0.9521
587,0.9497
588,0.9497
589,0.9511
590,0.9507
591,0.9508
592,0.9540
593,0.9544
594,0.9532
595,0.9507
596,0.9500
597,0.9497
598,0.9465
599,0.9469
600,0.9513
601,0.9527
602,0.9528
603,0.9528
604,0.9520
605,0.9518
606,0.9510
607,0.9509
608,0.9530
609,0.9537
610,0.9538
611,0.9539
612,0.9533
613,0.9520
614,0.9533
615,0.9538
616,0.9538
617,0.9532
618,0.9535
619,0.9544
620,0.9538
621,0.9538
622,0.9541
623,0.9543
624,0.9542
625,0.9552
626,0.9550
627,0.9549
628,0.9545
629,0.9538
630,0.9539
631,0.9548
632,0.9552
633,0.9569
634,0.9565
635,0.9565
636,0.9561
637,0.9550
638,0.9541
639,0.9554
640,0.9564
641,0.9561
642,0.9562
643,0.9566
644,0.9569
645,0.9561
646,0.9569
647,0.9563
648,0.9564
649,0.9561
650,0.9558
651,0.9568
652,0.9558
653,0.9555
654,0.9579
655,0.9691
656,0.9722
657,0.9697
658,0.9616
659,0.9587
660,0.9582
661,0.9576
662,0.9564
663,0.9553
664,0.9562
665,0.9562
666,0.9561
667,0.9566
668,0.9577
669,0.9595
670,0.9582
671,0.9579
672,0.9579
673,0.9577
674,0.9580
675,0.9599
676,0.9598
677,0.9600
678,0.9590
679,0.9583
680,0.9577
681,0.9567
682,0.9586
683,0.9583
684,0.9563
685,0.9564
686,0.9574
687,0.9576
688,0.9574
689,0.9571
690,0.9573
691,0.9582
692,0.9585
693,0.9593
694,0.9599
695,0.9592
696,0.9586
697,0.9581
698,0.9582
699,0.9578
700,0.9581
701,0.9583
702,0.9575
703,0.9573
704,0.9583
705,0.9594
706,0.9599
707,0.9591
708,0.9590
709,0.9595
710,0.9589
711,0.9586
712,0.9588
713,0.9603
714,0.9603
715,0.9600
716,0.9595
717,0.9600
718,0.9600
719,0.9597
720,0.9603
721,0.9608
722,0.9601
723,0.9584
724,0.9582
725,0.9580
726,0.9589
727,0.9590
728,0.9591
729,0.9600
730,0.9604
731,0.9615
732,0.9604
733,0.9583
734,0.9592
735,0.9598
736,0.9611
737,0.9604
738,0.9597
739,0.9573
740,0.9565
741,0.9580
742,0.9581
743,0.9589
744,0.9586
745,0.9600
746,0.9601
747,0.9601
748,0.9594
749,0.9606
750,0.9617
751,0.9607
752,0.9594
753,0.9595
754,0.9592
755,0.9596
756,0.9596
757,0.9598
758,0.9597
759,0.9595
760,0.9597
761,0.9594
762,0.9594
763,0.9597
764,0.9599
765,0.9596
766,0.9605
767,0.9609
768,0.9614
769,0.9621
770,0.9604
771,0.9586
772,0.9586
773,0.9609
774,0.9604
775,0.9604
776,0.9606
777,0.9610
778,0.9604
779,0.9589
780,0.9588
781,0.9589
782,0.9578
783,0.9588
784,0.9599
785,0.9606
786,0.9614
787,0.9624
788,0.9620
789,0.9612
790,0.9617
791,0.9609
792,0.9611
793,0.9607
794,0.9595
795,0.9598
796,0.9610
797,0.9602
798,0.9614
799,0.9624
800,0.9618
801,0.9625
802,0.9624
803,0.9613
804,0.9601
805,0.9596
806,0.9603
807,0.9607
808,0.9602
809,0.9602
810,0.9602
811,0.9605
812,0.9595
813,0.9596
814,0.9599
815,0.9614
816,0.9611
817,0.9590
818,0.9592
819,0.9603
820,0.9598
821,0.9603
822,0.9608
823,0.9610
824,0.9617
825,0.9610
826,0.9602
827,0.9601
828,0.9595
829,0.9599
830,0.9599
831,0.9597
832,0.9601
833,0.9614
834,0.9612
835,0.9617
836,0.9610
837,0.9604
838,0.9595
839,0.9592
840,0.9583
841,0.9600
842,0.9600
843,0.9590
844,0.9584
845,0.9579
846,0.9593
847,0.9604
848,0.9600
849,0.9611
850,0.9610
851,0.9606
852,0.9595
853,0.9592
854,0.9587
855,0.9590
856,0.9584
857,0.9581
858,0.9589
859,0.9601
860,0.9600
861,0.9622
862,0.9620
863,0.9601
864,0.9582
865,0.9573
866,0.9566
867,0.9570
868,0.9577
869,0.9596
870,0.9597
871,0.9596
872,0.9579
873,0.9574
874,0.9586
875,0.9597
876,0.9595
877,0.9596
878,0.9596
879,0.9599
880,0.9580
881,0.9594
882,0.9589
883,0.9597
884,0.9578
885,0.9579
886,0.9574
887,0.9576
888,0.9578
889,0.9571
890,0.9590
891,0.9594
892,0.9598
893,0.9588
894,0.9580
895,0.9578
896,0.9592
897,0.9589
898,0.9590
899,0.9588
