402,0.0500
403,0.0499
404,0.0499
405,0.0497
406,0.0497
407,0.0496
408,0.0493
409,0.0492
410,0.0491
411,0.0489
412,0.0485
413,0.0483
414,0.0482
415,0.0479
416,0.0477
417,0.0475
418,0.0471
419,0.0469
420,0.0466
421,0.0464
422,0.0461
423,0.0458
424,0.0456
425,0.0453
426,0.0451
427,0.0448
428,0.0446
429,0.0444
430,0.0441
431,0.0439
432,0.0439
433,0.0435
434,0.0432
435,0.0432
436,0.0431
437,0.0429
438,0.0427
439,0.0426
440,0.0425
441,0.0423
442,0.0423
443,0.0422
444,0.0421
445,0.0421
446,0.0421
447,0.0420
448,0.0420
449,0.0420
450,0.0421
451,0.0422
452,0.0422
453,0.0422
454,0.0423
455,0.0423
456,0.0425
457,0.0426
458,0.0426
459,0.0428
460,0.0430
461,0.0431
462,0.0431
463,0.0433
464,0.0435
465,0.0436
466,0.0437
467,0.0439
468,0.0441
469,0.0442
470,0.0445
471,0.0446
472,0.0447
473,0.0450
474,0.0451
475,0.0451
476,0.0454
477,0.0456
478,0.0459
479,0.0460
480,0.0461
481,0.0463
482,0.0465
483,0.0466
484,0.0467
485,0.0469
486,0.0471
487,0.0472
488,0.0473
489,0.0475
490,0.0476
491,0.0477
492,0.0478
493,0.0479
494,0.0480
495,0.0480
496,0.0482
497,0.0482
498,0.0482
499,0.0483
500,0.0484
501,0.0484
502,0.0484
503,0.0485
504,0.0486
505,0.0486
506,0.0486
507,0.0486
508,0.0486
509,0.0486
510,0.0486
511,0.0487
512,0.0485
513,0.0485
514,0.0485
515,0.0484
516,0.0484
517,0.0483
518,0.0481
519,0.0481
520,0.0481
521,0.0481
522,0.0480
523,0.0478
524,0.0478
525,0.0476
526,0.0475
527,0.0474
528,0.0473
529,0.0472
530,0.0472
531,0.0470
532,0.0468
533,0.0468
534,0.0467
535,0.0465
536,0.0464
537,0.0464
538,0.0461
539,0.0460
540,0.0457
541,0.0456
542,0.0456
543,0.0454
544,0.0453
545,0.0452
546,0.0451
547,0.0449
548,0.0447
549,0.0446
550,0.0445
551,0.0444
552,0.0442
553,0.0441
554,0.0440
555,0.0438
556,0.0437
557,0.0435
558,0.0435
559,0.0434
560,0.0432
561,0.0431
562,0.0431
563,0.0430
564,0.0429
565,0.0428
566,0.0426
567,0.0425
568,0.0423
569,0.0423
570,0.0422
571,0.0421
572,0.0420
573,0.0419
574,0.0418
575,0.0419
576,0.0419
577,0.0418
578,0.0418
579,0.0418
580,0.0416
581,0.0414
582,0.0414
583,0.0415
584,0.0415
585,0.0415
586,0.0415
587,0.0414
588,0.0414
589,0.0414
590,0.0415
591,0.0415
592,0.0416
593,0.0416
594,0.0415
595,0.0413
596,0.0414
597,0.0414
598,0.0412
599,0.0411
600,0.0414
601,0.0415
602,0.0416
603,0.0416
604,0.0416
605,0.0417
606,0.0416
607,0.0417
608,0.0417
609,0.0418
610,0.0419
611,0.0421
612,0.0420
613,0.0422
614,0.0422
615,0.0423
616,0.0423
617,0.0423
618,0.0425
619,0.0426
620,0.0426
621,0.0426
622,0.0426
623,0.0430
624,0.0430
625,0.0431
626,0.0431
627,0.0432
628,0.0432
629,0.0434
630,0.0435
631,0.0436
632,0.0436
633,0.0438
634,0.0438
635,0.0439
636,0.0439
637,0.0441
638,0.0442
639,0.0443
640,0.0445
641,0.0445
642,0.0445
643,0.0447
644,0.0448
645,0.0448
646,0.0449
647,0.0451
648,0.0452
649,0.0453
650,0.0453
651,0.0453
652,0.0454
653,0.0456
654,0.0459
655,0.0462
656,0.0463
657,0.0466
658,0.0470
659,0.0470
660,0.0464
661,0.0464
662,0.0465
663,0.0465
664,0.0463
665,0.0464
666,0.0466
667,0.0466
668,0.0466
669,0.0467
670,0.0468
671,0.0467
672,0.0467
673,0.0473
674,0.0473
675,0.0473
676,0.0473
677,0.0472
678,0.0473
679,0.0474
680,0.0474
681,0.0475
682,0.0476
683,0.0477
684,0.0475
685,0.0473
686,0.0475
687,0.0476
688,0.0478
689,0.0479
690,0.0479
691,0.0479
692,0.0480
693,0.0482
694,0.0482
695,0.0481
696,0.0479
697,0.0478
698,0.0478
699,0.0478
700,0.0479
701,0.0480
702,0.0481
703,0.0481
704,0.0481
705,0.0481
706,0.0480
707,0.0479
708,0.0478
709,0.0478
710,0.0481
711,0.0481
712,0.0481
713,0.0477
714,0.0478
715,0.0478
716,0.0479
717,0.0481
718,0.0482
719,0.0481
720,0.0481
721,0.0481
722,0.0478
723,0.0477
724,0.0477
725,0.0476
726,0.0476
727,0.0476
728,0.0477
729,0.0474
730,0.0475
731,0.0476
732,0.0477
733,0.0477
734,0.0477
735,0.0475
736,0.0475
737,0.0475
738,0.0473
739,0.0473
740,0.0473
741,0.0472
742,0.0472
743,0.0472
744,0.0471
745,0.0471
746,0.0470
747,0.0472
748,0.0469
749,0.0470
750,0.0469
751,0.0468
752,0.0467
753,0.0464
754,0.0464
755,0.0464
756,0.0464
757,0.0463
758,0.0462
759,0.0463
760,0.0463
761,0.0462
762,0.0461
763,0.0461
764,0.0459
765,0.0459
766,0.0458
767,0.0457
768,0.0456
769,0.0455
770,0.0455
771,0.0456
772,0.0453
773,0.0453
774,0.0452
775,0.0455
776,0.0450
777,0.0450
778,0.0450
779,0.0450
780,0.0449
781,0.0449
782,0.0446
783,0.0446
784,0.0448
785,0.0447
786,0.0446
787,0.0446
788,0.0444
789,0.0444
790,0.0440
791,0.0441
792,0.0439
793,0.0440
794,0.0439
795,0.0438
796,0.0439
797,0.0438
798,0.0437
799,0.0436
800,0.0436
801,0.0434
802,0.0432
803,0.0433
804,0.0436
805,0.0435
806,0.0437
807,0.0435
808,0.0433
809,0.0433
810,0.0435
811,0.0432
812,0.0429
813,0.0425
814,0.0427
815,0.0430
816,0.0431
817,0.0427
818,0.0427
819,0.0427
820,0.0425
821,0.0424
822,0.0423
823,0.0420
824,0.0422
825,0.0422
826,0.0419
827,0.0422
828,0.0423
829,0.0427
830,0.0427
831,0.0425
832,0.0424
833,0.0420
834,0.0421
835,0.0423
836,0.0420
837,0.0418
838,0.0418
839,0.0418
840,0.0416
841,0.0414
842,0.0412
843,0.0414
844,0.0416
845,0.0413
846,0.0412
847,0.0418
848,0.0412
849,0.0412
850,0.0415
851,0.0415
852,0.0415
853,0.0413
854,0.0414
855,0.0419
856,0.0411
857,0.0410
858,0.0408
859,0.0408
860,0.0410
861,0.0407
862,0.0408
863,0.0410
864,0.0408
865,0.0414
866,0.0414
867,0.0411
868,0.0408
869,0.0407
870,0.0407
871,0.0406
872,0.0408
873,0.0403
874,0.0407
875,0.0407
876,0.0410
877,0.0409
878,0.0410
879,0.0405
880,0.0405
881,0.0404
882,0.0408
883,0.0404
884,0.0411
885,0.0412
886,0.0411
887,0.0411
888,0.0406
889,0.0413
890,0.0405
891,0.0398
892,0.0407
893,0.0413
894,0.0413
895,0.0406
896,0.0415
897,0.0412
898,0.0410
