402,0.0503
403,0.0503
404,0.0503
405,0.0501
406,0.0501
407,0.0501
408,0.0499
409,0.0497
410,0.0497
411,0.0494
412,0.0492
413,0.0489
414,0.0488
415,0.0486
416,0.0484
417,0.0482
418,0.0479
419,0.0476
420,0.0474
421,0.0471
422,0.0470
423,0.0465
424,0.0463
425,0.0461
426,0.0458
427,0.0455
428,0.0453
429,0.0450
430,0.0447
431,0.0446
432,0.0445
433,0.0441
434,0.0439
435,0.0438
436,0.0436
437,0.0433
438,0.0432
439,0.0430
440,0.0429
441,0.0428
442,0.0427
443,0.0425
444,0.0425
445,0.0424
446,0.0424
447,0.0422
448,0.0421
449,0.0422
450,0.0422
451,0.0422
452,0.0422
453,0.0423
454,0.0423
455,0.0424
456,0.0424
457,0.0425
458,0.0425
459,0.0426
460,0.0427
461,0.0429
462,0.0430
463,0.0432
464,0.0433
465,0.0434
466,0.0435
467,0.0437
468,0.0438
469,0.0440
470,0.0442
471,0.0443
472,0.0445
473,0.0447
474,0.0449
475,0.0450
476,0.0451
477,0.0454
478,0.0456
479,0.0458
480,0.0459
481,0.0460
482,0.0462
483,0.0463
484,0.0464
485,0.0465
486,0.0467
487,0.0469
488,0.0470
489,0.0473
490,0.0475
491,0.0476
492,0.0477
493,0.0479
494,0.0479
495,0.0479
496,0.0481
497,0.0482
498,0.0483
499,0.0485
500,0.0485
501,0.0486
502,0.0486
503,0.0486
504,0.0487
505,0.0488
506,0.0488
507,0.0489
508,0.0489
509,0.0488
510,0.0489
511,0.0489
512,0.0488
513,0.0488
514,0.0488
515,0.0487
516,0.0488
517,0.0487
518,0.0486
519,0.0485
520,0.0484
521,0.0484
522,0.0484
523,0.0483
524,0.0482
525,0.0482
526,0.0480
527,0.0480
528,0.0478
529,0.0478
530,0.0477
531,0.0475
532,0.0474
533,0.0473
534,0.0473
535,0.0470
536,0.0469
537,0.0469
538,0.0466
539,0.0465
540,0.0464
541,0.0463
542,0.0462
543,0.0460
544,0.0460
545,0.0458
546,0.0456
547,0.0455
548,0.0454
549,0.0453
550,0.0451
551,0.0449
552,0.0447
553,0.0447
554,0.0445
555,0.0444
556,0.0442
557,0.0439
558,0.0439
559,0.0439
560,0.0437
561,0.0436
562,0.0435
563,0.0434
564,0.0433
565,0.0432
566,0.0431
567,0.0429
568,0.0426
569,0.0425
570,0.0424
571,0.0424
572,0.0424
573,0.0423
574,0.0422
575,0.0422
576,0.0422
577,0.0421
578,0.0421
579,0.0422
580,0.0420
581,0.0418
582,0.0418
583,0.0418
584,0.0418
585,0.0418
586,0.0417
587,0.0416
588,0.0416
589,0.0416
590,0.0415
591,0.0415
592,0.0415
593,0.0415
594,0.0415
595,0.0415
596,0.0416
597,0.0415
598,0.0414
599,0.0415
600,0.0415
601,0.0416
602,0.0417
603,0.0416
604,0.0416
605,0.0417
606,0.0417
607,0.0418
608,0.0418
609,0.0418
610,0.0418
611,0.0419
612,0.0420
613,0.0421
614,0.0421
615,0.0422
616,0.0423
617,0.0423
618,0.0424
619,0.0425
620,0.0426
621,0.0426
622,0.0427
623,0.0427
624,0.0428
625,0.0428
626,0.0430
627,0.0431
628,0.0433
629,0.0433
630,0.0434
631,0.0434
632,0.0435
633,0.0436
634,0.0438
635,0.0439
636,0.0440
637,0.0440
638,0.0441
639,0.0441
640,0.0444
641,0.0444
642,0.0444
643,0.0444
644,0.0445
645,0.0447
646,0.0449
647,0.0449
648,0.0449
649,0.0451
650,0.0450
651,0.0452
652,0.0455
653,0.0456
654,0.0464
655,0.0469
656,0.0467
657,0.0465
658,0.0463
659,0.0460
660,0.0460
661,0.0463
662,0.0462
663,0.0464
664,0.0464
665,0.0464
666,0.0467
667,0.0466
668,0.0467
669,0.0467
670,0.0468
671,0.0469
672,0.0469
673,0.0472
674,0.0472
675,0.0472
676,0.0472
677,0.0472
678,0.0472
679,0.0472
680,0.0475
681,0.0477
682,0.0475
683,0.0477
684,0.0478
685,0.0476
686,0.0477
687,0.0476
688,0.0479
689,0.0479
690,0.0480
691,0.0480
692,0.0481
693,0.0481
694,0.0482
695,0.0482
696,0.0481
697,0.0482
698,0.0482
699,0.0480
700,0.0480
701,0.0481
702,0.0482
703,0.0482
704,0.0482
705,0.0481
706,0.0483
707,0.0483
708,0.0483
709,0.0481
710,0.0482
711,0.0484
712,0.0483
713,0.0482
714,0.0483
715,0.0482
716,0.0483
717,0.0482
718,0.0483
719,0.0482
720,0.0482
721,0.0481
722,0.0482
723,0.0480
724,0.0481
725,0.0481
726,0.0481
727,0.0478
728,0.0479
729,0.0478
730,0.0478
731,0.0480
732,0.0480
733,0.0479
734,0.0480
735,0.0479
736,0.0478
737,0.0478
738,0.0477
739,0.0478
740,0.0477
741,0.0477
742,0.0476
743,0.0475
744,0.0473
745,0.0474
746,0.0475
747,0.0475
748,0.0472
749,0.0474
750,0.0473
751,0.0471
752,0.0472
753,0.0470
754,0.0471
755,0.0468
756,0.0468
757,0.0468
758,0.0470
759,0.0467
760,0.0466
761,0.0464
762,0.0464
763,0.0466
764,0.0465
765,0.0462
766,0.0459
767,0.0460
768,0.0462
769,0.0463
770,0.0461
771,0.0457
772,0.0456
773,0.0458
774,0.0458
775,0.0457
776,0.0455
777,0.0455
778,0.0454
779,0.0455
780,0.0455
781,0.0452
782,0.0450
783,0.0449
784,0.0449
785,0.0451
786,0.0449
787,0.0451
788,0.0449
789,0.0448
790,0.0445
791,0.0445
792,0.0444
793,0.0442
794,0.0443
795,0.0442
796,0.0441
797,0.0441
798,0.0440
799,0.0441
800,0.0442
801,0.0439
802,0.0436
803,0.0434
804,0.0439
805,0.0441
806,0.0443
807,0.0441
808,0.0435
809,0.0436
810,0.0438
811,0.0436
812,0.0435
813,0.0429
814,0.0427
815,0.0432
816,0.0433
817,0.0432
818,0.0429
819,0.0430
820,0.0428
821,0.0427
822,0.0426
823,0.0426
824,0.0428
825,0.0430
826,0.0426
827,0.0429
828,0.0430
829,0.0431
830,0.0431
831,0.0425
832,0.0419
833,0.0420
834,0.0422
835,0.0425
836,0.0423
837,0.0421
838,0.0422
839,0.0423
840,0.0423
841,0.0416
842,0.0415
843,0.0419
844,0.0423
845,0.0416
846,0.0418
847,0.0422
848,0.0419
849,0.0418
850,0.0415
851,0.0418
852,0.0418
853,0.0415
854,0.0415
855,0.0421
856,0.0415
857,0.0411
858,0.0414
859,0.0419
860,0.0418
861,0.0414
862,0.0412
863,0.0413
864,0.0413
865,0.0410
866,0.0418
867,0.0415
868,0.0413
869,0.0413
870,0.0407
871,0.0410
872,0.0410
873,0.0408
874,0.0408
875,0.0408
876,0.0413
877,0.0413
878,0.0413
879,0.0411
880,0.0407
881,0.0407
882,0.0412
883,0.0411
884,0.0411
885,0.0413
886,0.0412
887,0.0417
888,0.0410
889,0.0416
890,0.0403
891,0.0404
892,0.0409
893,0.0417
894,0.0417
895,0.0406
896,0.0414
897,0.0412
898,0.0412
