402,0.0498
403,0.0500
404,0.0502
405,0.0503
406,0.0502
407,0.0500
408,0.0498
409,0.0496
410,0.0493
411,0.0489
412,0.0485
413,0.0481
414,0.0476
415,0.0470
416,0.0465
417,0.0461
418,0.0457
419,0.0450
420,0.0446
421,0.0442
422,0.0439
423,0.0434
424,0.0432
425,0.0429
426,0.0427
427,0.0426
428,0.0425
429,0.0426
430,0.0425
431,0.0426
432,0.0427
433,0.0431
434,0.0433
435,0.0435
436,0.0438
437,0.0441
438,0.0445
439,0.0449
440,0.0455
441,0.0458
442,0.0462
443,0.0467
444,0.0470
445,0.0473
446,0.0476
447,0.0482
448,0.0484
449,0.0486
450,0.0489
451,0.0490
452,0.0492
453,0.0494
454,0.0493
455,0.0495
456,0.0494
457,0.0493
458,0.0491
459,0.0492
460,0.0488
461,0.0486
462,0.0484
463,0.0483
464,0.0478
465,0.0476
466,0.0473
467,0.0468
468,0.0465
469,0.0462
470,0.0457
471,0.0454
472,0.0451
473,0.0446
474,0.0443
475,0.0440
476,0.0438
477,0.0433
478,0.0431
479,0.0429
480,0.0426
481,0.0424
482,0.0422
483,0.0421
484,0.0420
485,0.0419
486,0.0418
487,0.0418
488,0.0418
489,0.0421
490,0.0421
491,0.0422
492,0.0424
493,0.0426
494,0.0429
495,0.0431
496,0.0433
497,0.0435
498,0.0437
499,0.0441
500,0.0443
501,0.0446
502,0.0450
503,0.0454
504,0.0456
505,0.0459
506,0.0462
507,0.0464
508,0.0468
509,0.0470
510,0.0472
511,0.0476
512,0.0478
513,0.0479
514,0.0481
515,0.0483
516,0.0484
517,0.0484
518,0.0485
519,0.0487
520,0.0487
521,0.0488
522,0.0488
523,0.0488
524,0.0487
525,0.0486
526,0.0485
527,0.0484
528,0.0484
529,0.0483
530,0.0481
531,0.0479
532,0.0475
533,0.0473
534,0.0472
535,0.0471
536,0.0468
537,0.0466
538,0.0463
539,0.0460
540,0.0457
541,0.0455
542,0.0453
543,0.0449
544,0.0447
545,0.0445
546,0.0442
547,0.0439
548,0.0437
549,0.0435
550,0.0433
551,0.0430
552,0.0427
553,0.0426
554,0.0424
555,0.0422
556,0.0421
557,0.0421
558,0.0420
559,0.0419
560,0.0418
561,0.0417
562,0.0416
563,0.0416
564,0.0417
565,0.0417
566,0.0417
567,0.0417
568,0.0417
569,0.0418
570,0.0419
571,0.0419
572,0.0420
573,0.0420
574,0.0422
575,0.0423
576,0.0426
577,0.0430
578,0.0431
579,0.0433
580,0.0435
581,0.0436
582,0.0438
583,0.0439
584,0.0442
585,0.0446
586,0.0447
587,0.0449
588,0.0450
589,0.0452
590,0.0455
591,0.0457
592,0.0461
593,0.0462
594,0.0463
595,0.0466
596,0.0468
597,0.0469
598,0.0471
599,0.0473
600,0.0475
601,0.0476
602,0.0477
603,0.0478
604,0.0479
605,0.0480
606,0.0480
607,0.0481
608,0.0481
609,0.0482
610,0.0483
611,0.0484
612,0.0486
613,0.0486
614,0.0485
615,0.0482
616,0.0482
617,0.0482
618,0.0483
619,0.0485
620,0.0483
621,0.0482
622,0.0481
623,0.0478
624,0.0477
625,0.0478
626,0.0477
627,0.0476
628,0.0475
629,0.0474
630,0.0472
631,0.0470
632,0.0469
633,0.0466
634,0.0465
635,0.0463
636,0.0462
637,0.0460
638,0.0456
639,0.0456
640,0.0453
641,0.0451
642,0.0449
643,0.0448
644,0.0446
645,0.0443
646,0.0442
647,0.0441
648,0.0438
649,0.0437
650,0.0435
651,0.0433
652,0.0432
653,0.0431
654,0.0437
655,0.0438
656,0.0437
657,0.0434
658,0.0428
659,0.0422
660,0.0421
661,0.0420
662,0.0420
663,0.0418
664,0.0418
665,0.0417
666,0.0416
667,0.0415
668,0.0416
669,0.0417
670,0.0415
671,0.0415
672,0.0414
673,0.0412
674,0.0411
675,0.0414
676,0.0415
677,0.0413
678,0.0415
679,0.0416
680,0.0414
681,0.0415
682,0.0417
683,0.0417
684,0.0417
685,0.0418
686,0.0417
687,0.0418
688,0.0421
689,0.0423
690,0.0423
691,0.0424
692,0.0425
693,0.0424
694,0.0427
695,0.0431
696,0.0431
697,0.0431
698,0.0433
699,0.0435
700,0.0437
701,0.0437
702,0.0439
703,0.0440
704,0.0440
705,0.0442
706,0.0442
707,0.0443
708,0.0446
709,0.0450
710,0.0451
711,0.0451
712,0.0455
713,0.0454
714,0.0457
715,0.0457
716,0.0460
717,0.0460
718,0.0462
719,0.0464
720,0.0465
721,0.0466
722,0.0467
723,0.0469
724,0.0468
725,0.0470
726,0.0472
727,0.0470
728,0.0471
729,0.0475
730,0.0478
731,0.0479
732,0.0479
733,0.0480
734,0.0479
735,0.0478
736,0.0480
737,0.0480
738,0.0482
739,0.0482
740,0.0481
741,0.0480
742,0.0482
743,0.0482
744,0.0481
745,0.0483
746,0.0482
747,0.0484
748,0.0483
749,0.0484
750,0.0484
751,0.0485
752,0.0484
753,0.0483
754,0.0482
755,0.0481
756,0.0481
757,0.0482
758,0.0482
759,0.0482
760,0.0481
761,0.0479
762,0.0479
763,0.0476
764,0.0476
765,0.0474
766,0.0473
767,0.0473
768,0.0475
769,0.0474
770,0.0472
771,0.0469
772,0.0469
773,0.0468
774,0.0468
775,0.0466
776,0.0462
777,0.0463
778,0.0461
779,0.0460
780,0.0459
781,0.0457
782,0.0455
783,0.0455
784,0.0455
785,0.0455
786,0.0454
787,0.0454
788,0.0450
789,0.0450
790,0.0447
791,0.0442
792,0.0445
793,0.0440
794,0.0439
795,0.0438
796,0.0439
797,0.0437
798,0.0436
799,0.0436
800,0.0437
801,0.0435
802,0.0434
803,0.0431
804,0.0426
805,0.0429
806,0.0432
807,0.0429
808,0.0429
809,0.0424
810,0.0424
811,0.0424
812,0.0423
813,0.0417
814,0.0418
815,0.0422
816,0.0420
817,0.0420
818,0.0419
819,0.0420
820,0.0419
821,0.0418
822,0.0415
823,0.0413
824,0.0415
825,0.0416
826,0.0415
827,0.0415
828,0.0414
829,0.0412
830,0.0410
831,0.0412
832,0.0412
833,0.0408
834,0.0412
835,0.0410
836,0.0409
837,0.0407
838,0.0410
839,0.0412
840,0.0413
841,0.0407
842,0.0414
843,0.0410
844,0.0411
845,0.0409
846,0.0411
847,0.0412
848,0.0413
849,0.0415
850,0.0412
851,0.0417
852,0.0418
853,0.0419
854,0.0420
855,0.0412
856,0.0412
857,0.0412
858,0.0418
859,0.0418
860,0.0416
861,0.0409
862,0.0413
863,0.0419
864,0.0421
865,0.0421
866,0.0422
867,0.0426
868,0.0421
869,0.0424
870,0.0428
871,0.0427
872,0.0428
873,0.0425
874,0.0422
875,0.0429
876,0.0432
877,0.0430
878,0.0433
879,0.0429
880,0.0428
881,0.0425
882,0.0438
883,0.0436
884,0.0432
885,0.0440
886,0.0437
887,0.0443
888,0.0443
889,0.0442
890,0.0442
891,0.0434
892,0.0440
893,0.0447
894,0.0446
895,0.0452
896,0.0446
897,0.0450
898,0.0451
