300,0.0484
301,0.0482
302,0.0480
303,0.0476
304,0.0474
305,0.0473
306,0.0472
307,0.0469
308,0.0467
309,0.0466
310,0.0465
311,0.0464
312,0.0462
313,0.0461
314,0.0460
315,0.0458
316,0.0457
317,0.0456
318,0.0455
319,0.0455
320,0.0454
321,0.0453
322,0.0453
323,0.0452
324,0.0452
325,0.0451
326,0.0450
327,0.0450
328,0.0449
329,0.0448
330,0.0448
331,0.0447
332,0.0447
333,0.0446
334,0.0446
335,0.0447
336,0.0446
337,0.0445
338,0.0445
339,0.0444
340,0.0444
341,0.0444
342,0.0444
343,0.0443
344,0.0443
345,0.0443
346,0.0442
347,0.0442
348,0.0442
349,0.0442
350,0.0441
351,0.0441
352,0.0441
353,0.0440
354,0.0441
355,0.0441
356,0.0440
357,0.0440
358,0.0439
359,0.0440
360,0.0439
361,0.0439
362,0.0440
363,0.0439
364,0.0438
365,0.0439
366,0.0439
367,0.0438
368,0.0438
369,0.0438
370,0.0438
371,0.0438
372,0.0438
373,0.0438
374,0.0438
375,0.0437
376,0.0437
377,0.0437
378,0.0436
379,0.0437
380,0.0437
381,0.0437
382,0.0436
383,0.0436
384,0.0435
385,0.0436
386,0.0436
387,0.0436
388,0.0435
389,0.0435
390,0.0435
391,0.0435
392,0.0435
393,0.0435
394,0.0434
395,0.0435
396,0.0435
397,0.0434
398,0.0434
399,0.0434
400,0.0434
401,0.0434
402,0.0434
403,0.0434
404,0.0434
405,0.0433
406,0.0433
407,0.0433
408,0.0433
409,0.0434
410,0.0433
411,0.0433
412,0.0433
413,0.0432
414,0.0433
415,0.0433
416,0.0433
417,0.0432
418,0.0433
419,0.0432
420,0.0432
421,0.0431
422,0.0431
423,0.0431
424,0.0431
425,0.0432
426,0.0431
427,0.0432
428,0.0431
429,0.0432
430,0.0431
431,0.0431
432,0.0431
433,0.0431
434,0.0431
435,0.0431
436,0.0430
437,0.0431
438,0.0431
439,0.0431
440,0.0430
441,0.0430
442,0.0430
443,0.0429
444,0.0430
445,0.0430
446,0.0430
447,0.0430
448,0.0430
449,0.0430
450,0.0429
451,0.0430
452,0.0430
453,0.0430
454,0.0429
455,0.0429
456,0.0429
457,0.0429
458,0.0429
459,0.0429
460,0.0428
461,0.0429
462,0.0429
463,0.0429
464,0.0429
465,0.0430
466,0.0428
467,0.0428
468,0.0427
469,0.0428
470,0.0428
471,0.0428
472,0.0429
473,0.0428
474,0.0428
475,0.0428
476,0.0428
477,0.0427
478,0.0427
479,0.0427
480,0.0428
481,0.0427
482,0.0427
483,0.0427
484,0.0427
485,0.0427
486,0.0427
487,0.0426
488,0.0425
489,0.0427
490,0.0427
491,0.0427
492,0.0426
493,0.0426
494,0.0426
495,0.0427
496,0.0428
497,0.0426
498,0.0426
499,0.0426
500,0.0426
501,0.0426
502,0.0426
503,0.0427
504,0.0426
505,0.0425
506,0.0426
507,0.0425
508,0.0426
509,0.0425
510,0.0425
511,0.0426
512,0.0426
513,0.0426
514,0.0426
515,0.0426
516,0.0425
517,0.0426
518,0.0426
519,0.0426
520,0.0426
521,0.0426
522,0.0426
523,0.0426
524,0.0425
525,0.0425
526,0.0426
527,0.0425
528,0.0425
529,0.0425
530,0.0425
531,0.0425
532,0.0426
533,0.0426
534,0.0425
535,0.0426
536,0.0425
537,0.0425
538,0.0425
539,0.0425
540,0.0425
541,0.0425
542,0.0425
543,0.0425
544,0.0425
545,0.0425
546,0.0425
547,0.0425
548,0.0425
549,0.0425
550,0.0424
551,0.0424
552,0.0424
553,0.0424
554,0.0424
555,0.0425
556,0.0424
557,0.0424
558,0.0424
559,0.0425
560,0.0424
561,0.0425
562,0.0424
563,0.0424
564,0.0424
565,0.0423
566,0.0424
567,0.0424
568,0.0424
569,0.0424
570,0.0424
571,0.0423
572,0.0422
573,0.0422
574,0.0423
575,0.0422
576,0.0422
577,0.0423
578,0.0422
579,0.0422
580,0.0422
581,0.0422
582,0.0422
583,0.0421
584,0.0421
585,0.0422
586,0.0422
587,0.0421
588,0.0422
589,0.0421
590,0.0422
591,0.0423
592,0.0425
593,0.0424
594,0.0422
595,0.0421
596,0.0420
597,0.0420
598,0.0421
599,0.0421
600,0.0420
601,0.0420
602,0.0421
603,0.0422
604,0.0421
605,0.0421
606,0.0422
607,0.0421
608,0.0420
609,0.0420
610,0.0420
611,0.0421
612,0.0422
613,0.0423
614,0.0421
615,0.0421
616,0.0420
617,0.0420
618,0.0422
619,0.0422
620,0.0422
621,0.0422
622,0.0421
623,0.0420
624,0.0419
625,0.0421
626,0.0422
627,0.0423
628,0.0423
629,0.0424
630,0.0424
631,0.0422
632,0.0421
633,0.0422
634,0.0422
635,0.0422
636,0.0421
637,0.0421
638,0.0421
639,0.0421
640,0.0422
641,0.0421
642,0.0421
643,0.0422
644,0.0421
645,0.0422
646,0.0422
647,0.0422
648,0.0421
649,0.0422
650,0.0420
651,0.0420
652,0.0422
653,0.0422
654,0.0429
655,0.0434
656,0.0430
657,0.0424
658,0.0415
659,0.0412
660,0.0420
661,0.0423
662,0.0423
663,0.0423
664,0.0422
665,0.0423
666,0.0421
667,0.0421
668,0.0423
669,0.0422
670,0.0421
671,0.0423
672,0.0422
673,0.0420
674,0.0419
675,0.0420
676,0.0421
677,0.0422
678,0.0422
679,0.0421
680,0.0421
681,0.0420
682,0.0421
683,0.0421
684,0.0420
685,0.0420
686,0.0418
687,0.0418
688,0.0420
689,0.0421
690,0.0421
691,0.0422
692,0.0421
693,0.0420
694,0.0420
695,0.0421
696,0.0422
697,0.0419
698,0.0419
699,0.0419
700,0.0419
701,0.0421
702,0.0420
703,0.0420
704,0.0418
705,0.0419
706,0.0421
707,0.0420
708,0.0420
709,0.0419
710,0.0418
711,0.0417
712,0.0420
713,0.0418
714,0.0418
715,0.0417
716,0.0420
717,0.0421
718,0.0420
719,0.0421
720,0.0419
721,0.0420
722,0.0420
723,0.0419
724,0.0419
725,0.0421
726,0.0421
727,0.0418
728,0.0420
729,0.0419
730,0.0418
731,0.0418
732,0.0419
733,0.0420
734,0.0419
735,0.0419
736,0.0418
737,0.0418
738,0.0418
739,0.0418
740,0.0419
741,0.0419
742,0.0418
743,0.0419
744,0.0418
745,0.0420
746,0.0419
747,0.0418
748,0.0419
749,0.0418
750,0.0418
751,0.0419
752,0.0418
753,0.0418
754,0.0417
755,0.0417
756,0.0420
757,0.0419
758,0.0418
759,0.0419
760,0.0419
761,0.0418
762,0.0417
763,0.0418
764,0.0419
765,0.0419
766,0.0418
767,0.0417
768,0.0418
769,0.0418
770,0.0420
771,0.0418
772,0.0417
773,0.0415
774,0.0417
775,0.0416
776,0.0418
777,0.0418
778,0.0419
779,0.0420
780,0.0418
781,0.0419
782,0.0418
783,0.0418
784,0.0421
785,0.0420
786,0.0418
787,0.0420
788,0.0417
789,0.0416
790,0.0418
791,0.0414
792,0.0415
793,0.0417
794,0.0418
795,0.0417
796,0.0416
797,0.0417
798,0.0418
799,0.0416
800,0.0416
801,0.0419
802,0.0416
803,0.0417
804,0.0417
805,0.0419
806,0.0419
807,0.0420
808,0.0420
809,0.0417
810,0.0416
811,0.0417
812,0.0418
813,0.0418
814,0.0418
815,0.0416
816,0.0420
817,0.0415
818,0.0416
819,0.0416
820,0.0417
821,0.0418
822,0.0417
823,0.0420
824,0.0418
825,0.0416
826,0.0415
827,0.0420
828,0.0417
829,0.0416
830,0.0418
831,0.0418
832,0.0419
833,0.0419
834,0.0417
835,0.0417
836,0.0421
837,0.0417
838,0.0415
839,0.0419
840,0.0421
841,0.0418
842,0.0422
843,0.0414
844,0.0416
845,0.0420
846,0.0427
847,0.0419
848,0.0421
849,0.0418
850,0.0418
851,0.0418
852,0.0423
853,0.0421
854,0.0420
855,0.0418
856,0.0416
857,0.0416
858,0.0415
859,0.0415
860,0.0417
861,0.0420
862,0.0417
863,0.0423
864,0.0419
865,0.0423
866,0.0417
867,0.0418
868,0.0416
869,0.0417
870,0.0421
871,0.0423
872,0.0417
873,0.0418
874,0.0415
875,0.0416
876,0.0422
877,0.0426
878,0.0421
879,0.0412
880,0.0416
881,0.0412
882,0.0424
883,0.0422
884,0.0421
885,0.0419
886,0.0418
887,0.0418
888,0.0419
889,0.0416
890,0.0417
891,0.0417
892,0.0417
893,0.0420
894,0.0418
895,0.0425
896,0.0421
897,0.0426
898,0.0421
899,0.0414
900,0.0421
