402,0.0488
403,0.0485
404,0.0475
405,0.0468
406,0.0461
407,0.0454
408,0.0446
409,0.0444
410,0.0443
411,0.0444
412,0.0452
413,0.0458
414,0.0464
415,0.0475
416,0.0481
417,0.0486
418,0.0487
419,0.0486
420,0.0483
421,0.0478
422,0.0472
423,0.0463
424,0.0455
425,0.0448
426,0.0442
427,0.0440
428,0.0439
429,0.0441
430,0.0446
431,0.0452
432,0.0458
433,0.0468
434,0.0475
435,0.0480
436,0.0484
437,0.0486
438,0.0485
439,0.0482
440,0.0476
441,0.0470
442,0.0463
443,0.0453
444,0.0448
445,0.0443
446,0.0439
447,0.0436
448,0.0436
449,0.0438
450,0.0444
451,0.0449
452,0.0454
453,0.0460
454,0.0470
455,0.0475
456,0.0479
457,0.0483
458,0.0485
459,0.0484
460,0.0480
461,0.0476
462,0.0472
463,0.0465
464,0.0455
465,0.0449
466,0.0444
467,0.0439
468,0.0435
469,0.0433
470,0.0433
471,0.0434
472,0.0437
473,0.0444
474,0.0449
475,0.0454
476,0.0459
477,0.0469
478,0.0474
479,0.0477
480,0.0481
481,0.0483
482,0.0483
483,0.0480
484,0.0476
485,0.0469
486,0.0465
487,0.0463
488,0.0459
489,0.0447
490,0.0442
491,0.0437
492,0.0434
493,0.0430
494,0.0430
495,0.0430
496,0.0431
497,0.0434
498,0.0438
499,0.0445
500,0.0450
501,0.0455
502,0.0463
503,0.0469
504,0.0472
505,0.0478
506,0.0481
507,0.0482
508,0.0482
509,0.0480
510,0.0478
511,0.0473
512,0.0469
513,0.0465
514,0.0456
515,0.0452
516,0.0446
517,0.0439
518,0.0435
519,0.0432
520,0.0429
521,0.0428
522,0.0427
523,0.0427
524,0.0428
525,0.0432
526,0.0437
527,0.0441
528,0.0445
529,0.0453
530,0.0457
531,0.0461
532,0.0467
533,0.0471
534,0.0475
535,0.0480
536,0.0481
537,0.0481
538,0.0481
539,0.0478
540,0.0476
541,0.0472
542,0.0468
543,0.0462
544,0.0457
545,0.0453
546,0.0447
547,0.0442
548,0.0437
549,0.0432
550,0.0430
551,0.0428
552,0.0425
553,0.0424
554,0.0425
555,0.0427
556,0.0428
557,0.0432
558,0.0435
559,0.0439
560,0.0445
561,0.0449
562,0.0454
563,0.0460
564,0.0464
565,0.0469
566,0.0473
567,0.0476
568,0.0480
569,0.0481
570,0.0482
571,0.0482
572,0.0480
573,0.0478
574,0.0475
575,0.0473
576,0.0469
577,0.0463
578,0.0459
579,0.0454
580,0.0448
581,0.0442
582,0.0439
583,0.0437
584,0.0433
585,0.0428
586,0.0426
587,0.0424
588,0.0423
589,0.0423
590,0.0424
591,0.0425
592,0.0425
593,0.0427
594,0.0431
595,0.0437
596,0.0441
597,0.0446
598,0.0452
599,0.0456
600,0.0461
601,0.0464
602,0.0467
603,0.0471
604,0.0473
605,0.0476
606,0.0478
607,0.0479
608,0.0481
609,0.0481
610,0.0480
611,0.0479
612,0.0477
613,0.0472
614,0.0470
615,0.0466
616,0.0464
617,0.0460
618,0.0454
619,0.0450
620,0.0446
621,0.0443
622,0.0439
623,0.0434
624,0.0429
625,0.0427
626,0.0425
627,0.0423
628,0.0422
629,0.0421
630,0.0421
631,0.0422
632,0.0423
633,0.0425
634,0.0426
635,0.0430
636,0.0431
637,0.0434
638,0.0440
639,0.0443
640,0.0449
641,0.0452
642,0.0456
643,0.0462
644,0.0465
645,0.0469
646,0.0471
647,0.0475
648,0.0477
649,0.0480
650,0.0480
651,0.0479
652,0.0479
653,0.0479
654,0.0475
655,0.0472
656,0.0473
657,0.0477
658,0.0482
659,0.0480
660,0.0470
661,0.0462
662,0.0458
663,0.0455
664,0.0450
665,0.0446
666,0.0442
667,0.0439
668,0.0434
669,0.0432
670,0.0428
671,0.0425
672,0.0422
673,0.0421
674,0.0422
675,0.0421
676,0.0421
677,0.0420
678,0.0418
679,0.0418
680,0.0420
681,0.0421
682,0.0426
683,0.0428
684,0.0429
685,0.0432
686,0.0438
687,0.0442
688,0.0446
689,0.0448
690,0.0451
691,0.0455
692,0.0458
693,0.0463
694,0.0467
695,0.0469
696,0.0471
697,0.0474
698,0.0475
699,0.0477
700,0.0477
701,0.0478
702,0.0478
703,0.0480
704,0.0480
705,0.0480
706,0.0479
707,0.0478
708,0.0478
709,0.0475
710,0.0472
711,0.0469
712,0.0466
713,0.0462
714,0.0456
715,0.0453
716,0.0449
717,0.0450
718,0.0446
719,0.0442
720,0.0439
721,0.0434
722,0.0432
723,0.0430
724,0.0427
725,0.0425
726,0.0423
727,0.0422
728,0.0420
729,0.0417
730,0.0415
731,0.0415
732,0.0415
733,0.0415
734,0.0418
735,0.0417
736,0.0419
737,0.0420
738,0.0422
739,0.0425
740,0.0428
741,0.0433
742,0.0437
743,0.0440
744,0.0441
745,0.0445
746,0.0446
747,0.0448
748,0.0451
749,0.0455
750,0.0458
751,0.0461
752,0.0466
753,0.0470
754,0.0471
755,0.0472
756,0.0474
757,0.0476
758,0.0479
759,0.0481
760,0.0480
761,0.0482
762,0.0483
763,0.0481
764,0.0480
765,0.0481
766,0.0482
767,0.0479
768,0.0475
769,0.0473
770,0.0473
771,0.0472
772,0.0471
773,0.0467
774,0.0466
775,0.0462
776,0.0461
777,0.0457
778,0.0450
779,0.0447
780,0.0445
781,0.0442
782,0.0440
783,0.0440
784,0.0436
785,0.0433
786,0.0429
787,0.0423
788,0.0423
789,0.0421
790,0.0422
791,0.0419
792,0.0419
793,0.0414
794,0.0413
795,0.0416
796,0.0416
797,0.0415
798,0.0416
799,0.0418
800,0.0416
801,0.0418
802,0.0417
803,0.0419
804,0.0420
805,0.0423
806,0.0426
807,0.0427
808,0.0430
809,0.0430
810,0.0434
811,0.0437
812,0.0440
813,0.0443
814,0.0447
815,0.0451
816,0.0451
817,0.0454
818,0.0457
819,0.0461
820,0.0465
821,0.0464
822,0.0467
823,0.0468
824,0.0469
825,0.0475
826,0.0475
827,0.0473
828,0.0475
829,0.0476
830,0.0482
831,0.0480
832,0.0482
833,0.0478
834,0.0483
835,0.0485
836,0.0483
837,0.0484
838,0.0480
839,0.0484
840,0.0480
841,0.0477
842,0.0476
843,0.0475
844,0.0471
845,0.0469
846,0.0461
847,0.0463
848,0.0462
849,0.0464
850,0.0457
851,0.0450
852,0.0453
853,0.0450
854,0.0446
855,0.0445
856,0.0436
857,0.0437
858,0.0441
859,0.0439
860,0.0436
861,0.0432
862,0.0433
863,0.0418
864,0.0420
865,0.0420
866,0.0416
867,0.0419
868,0.0419
869,0.0418
870,0.0410
871,0.0412
872,0.0412
873,0.0417
874,0.0414
875,0.0415
876,0.0412
877,0.0409
878,0.0417
879,0.0414
880,0.0415
881,0.0416
882,0.0413
883,0.0414
884,0.0423
885,0.0420
886,0.0420
887,0.0425
888,0.0420
889,0.0427
890,0.0434
891,0.0430
892,0.0438
893,0.0437
894,0.0435
895,0.0440
896,0.0445
897,0.0449
898,0.0444
