300,0.0498
301,0.0494
302,0.0491
303,0.0486
304,0.0483
305,0.0481
306,0.0477
307,0.0473
308,0.0472
309,0.0470
310,0.0468
311,0.0465
312,0.0463
313,0.0462
314,0.0460
315,0.0459
316,0.0457
317,0.0456
318,0.0455
319,0.0454
320,0.0452
321,0.0451
322,0.0451
323,0.0450
324,0.0449
325,0.0448
326,0.0447
327,0.0447
328,0.0446
329,0.0446
330,0.0446
331,0.0446
332,0.0445
333,0.0444
334,0.0444
335,0.0443
336,0.0443
337,0.0443
338,0.0442
339,0.0443
340,0.0443
341,0.0442
342,0.0442
343,0.0442
344,0.0442
345,0.0442
346,0.0442
347,0.0442
348,0.0442
349,0.0442
350,0.0442
351,0.0442
352,0.0443
353,0.0443
354,0.0442
355,0.0443
356,0.0443
357,0.0443
358,0.0443
359,0.0443
360,0.0443
361,0.0443
362,0.0444
363,0.0444
364,0.0444
365,0.0445
366,0.0444
367,0.0445
368,0.0445
369,0.0445
370,0.0445
371,0.0446
372,0.0446
373,0.0446
374,0.0447
375,0.0447
376,0.0447
377,0.0447
378,0.0447
379,0.0447
380,0.0448
381,0.0449
382,0.0448
383,0.0449
384,0.0449
385,0.0449
386,0.0449
387,0.0450
388,0.0450
389,0.0450
390,0.0451
391,0.0450
392,0.0451
393,0.0451
394,0.0451
395,0.0452
396,0.0452
397,0.0453
398,0.0453
399,0.0453
400,0.0454
401,0.0454
402,0.0454
403,0.0454
404,0.0455
405,0.0455
406,0.0456
407,0.0455
408,0.0456
409,0.0456
410,0.0456
411,0.0457
412,0.0457
413,0.0458
414,0.0459
415,0.0458
416,0.0457
417,0.0457
418,0.0458
419,0.0459
420,0.0459
421,0.0459
422,0.0460
423,0.0460
424,0.0460
425,0.0460
426,0.0460
427,0.0460
428,0.0461
429,0.0462
430,0.0462
431,0.0463
432,0.0462
433,0.0462
434,0.0463
435,0.0463
436,0.0463
437,0.0464
438,0.0464
439,0.0463
440,0.0464
441,0.0464
442,0.0465
443,0.0466
444,0.0465
445,0.0464
446,0.0465
447,0.0466
448,0.0467
449,0.0467
450,0.0467
451,0.0466
452,0.0467
453,0.0468
454,0.0468
455,0.0469
456,0.0468
457,0.0468
458,0.0469
459,0.0468
460,0.0468
461,0.0469
462,0.0469
463,0.0470
464,0.0470
465,0.0471
466,0.0470
467,0.0471
468,0.0470
469,0.0470
470,0.0471
471,0.0471
472,0.0471
473,0.0472
474,0.0472
475,0.0472
476,0.0472
477,0.0473
478,0.0473
479,0.0473
480,0.0473
481,0.0474
482,0.0474
483,0.0475
484,0.0475
485,0.0477
486,0.0477
487,0.0475
488,0.0472
489,0.0473
490,0.0474
491,0.0474
492,0.0475
493,0.0476
494,0.0476
495,0.0475
496,0.0475
497,0.0475
498,0.0475
499,0.0476
500,0.0476
501,0.0476
502,0.0477
503,0.0476
504,0.0476
505,0.0477
506,0.0477
507,0.0476
508,0.0477
509,0.0479
510,0.0478
511,0.0477
512,0.0478
513,0.0478
514,0.0478
515,0.0478
516,0.0479
517,0.0479
518,0.0479
519,0.0480
520,0.0480
521,0.0480
522,0.0479
523,0.0480
524,0.0479
525,0.0480
526,0.0479
527,0.0480
528,0.0480
529,0.0480
530,0.0480
531,0.0479
532,0.0481
533,0.0481
534,0.0481
535,0.0481
536,0.0481
537,0.0482
538,0.0481
539,0.0481
540,0.0481
541,0.0481
542,0.0482
543,0.0480
544,0.0481
545,0.0482
546,0.0481
547,0.0482
548,0.0483
549,0.0482
550,0.0482
551,0.0482
552,0.0483
553,0.0482
554,0.0483
555,0.0483
556,0.0483
557,0.0483
558,0.0483
559,0.0484
560,0.0483
561,0.0483
562,0.0483
563,0.0483
564,0.0482
565,0.0483
566,0.0484
567,0.0484
568,0.0485
569,0.0485
570,0.0485
571,0.0484
572,0.0484
573,0.0484
574,0.0484
575,0.0483
576,0.0483
577,0.0484
578,0.0483
579,0.0482
580,0.0484
581,0.0485
582,0.0485
583,0.0484
584,0.0483
585,0.0484
586,0.0484
587,0.0483
588,0.0483
589,0.0483
590,0.0484
591,0.0484
592,0.0483
593,0.0483
594,0.0483
595,0.0485
596,0.0485
597,0.0486
598,0.0487
599,0.0487
600,0.0485
601,0.0485
602,0.0484
603,0.0483
604,0.0483
605,0.0485
606,0.0486
607,0.0486
608,0.0486
609,0.0485
610,0.0485
611,0.0484
612,0.0485
613,0.0484
614,0.0485
615,0.0485
616,0.0484
617,0.0485
618,0.0486
619,0.0485
620,0.0487
621,0.0488
622,0.0488
623,0.0486
624,0.0485
625,0.0484
626,0.0484
627,0.0485
628,0.0487
629,0.0487
630,0.0488
631,0.0488
632,0.0487
633,0.0485
634,0.0486
635,0.0487
636,0.0487
637,0.0488
638,0.0488
639,0.0486
640,0.0486
641,0.0486
642,0.0487
643,0.0487
644,0.0487
645,0.0487
646,0.0486
647,0.0488
648,0.0488
649,0.0488
650,0.0486
651,0.0485
652,0.0486
653,0.0486
654,0.0494
655,0.0497
656,0.0494
657,0.0489
658,0.0482
659,0.0476
660,0.0482
661,0.0486
662,0.0486
663,0.0486
664,0.0485
665,0.0487
666,0.0486
667,0.0486
668,0.0485
669,0.0486
670,0.0487
671,0.0486
672,0.0486
673,0.0486
674,0.0484
675,0.0486
676,0.0488
677,0.0486
678,0.0487
679,0.0487
680,0.0486
681,0.0487
682,0.0486
683,0.0485
684,0.0485
685,0.0487
686,0.0486
687,0.0487
688,0.0485
689,0.0486
690,0.0487
691,0.0487
692,0.0488
693,0.0487
694,0.0486
695,0.0486
696,0.0487
697,0.0486
698,0.0484
699,0.0486
700,0.0485
701,0.0484
702,0.0485
703,0.0484
704,0.0484
705,0.0485
706,0.0486
707,0.0487
708,0.0486
709,0.0485
710,0.0484
711,0.0485
712,0.0485
713,0.0486
714,0.0485
715,0.0484
716,0.0483
717,0.0483
718,0.0484
719,0.0484
720,0.0485
721,0.0484
722,0.0486
723,0.0484
724,0.0484
725,0.0483
726,0.0484
727,0.0484
728,0.0485
729,0.0485
730,0.0486
731,0.0484
732,0.0483
733,0.0484
734,0.0484
735,0.0484
736,0.0483
737,0.0482
738,0.0483
739,0.0484
740,0.0485
741,0.0483
742,0.0483
743,0.0485
744,0.0483
745,0.0483
746,0.0485
747,0.0486
748,0.0486
749,0.0485
750,0.0485
751,0.0483
752,0.0483
753,0.0483
754,0.0484
755,0.0484
756,0.0483
757,0.0483
758,0.0483
759,0.0482
760,0.0483
761,0.0482
762,0.0482
763,0.0484
764,0.0484
765,0.0485
766,0.0484
767,0.0482
768,0.0483
769,0.0482
770,0.0482
771,0.0484
772,0.0484
773,0.0483
774,0.0481
775,0.0482
776,0.0481
777,0.0482
778,0.0480
779,0.0479
780,0.0480
781,0.0479
782,0.0483
783,0.0483
784,0.0487
785,0.0483
786,0.0481
787,0.0481
788,0.0480
789,0.0480
790,0.0479
791,0.0479
792,0.0478
793,0.0484
794,0.0485
795,0.0484
796,0.0480
797,0.0482
798,0.0480
799,0.0482
800,0.0482
801,0.0480
802,0.0483
803,0.0483
804,0.0484
805,0.0481
806,0.0477
807,0.0479
808,0.0483
809,0.0485
810,0.0479
811,0.0482
812,0.0481
813,0.0484
814,0.0485
815,0.0481
816,0.0479
817,0.0480
818,0.0478
819,0.0482
820,0.0485
821,0.0483
822,0.0480
823,0.0479
824,0.0479
825,0.0476
826,0.0475
827,0.0475
828,0.0475
829,0.0480
830,0.0482
831,0.0476
832,0.0479
833,0.0485
834,0.0480
835,0.0480
836,0.0483
837,0.0485
838,0.0483
839,0.0480
840,0.0478
841,0.0478
842,0.0478
843,0.0478
844,0.0483
845,0.0480
846,0.0477
847,0.0477
848,0.0481
849,0.0478
850,0.0484
851,0.0484
852,0.0481
853,0.0479
854,0.0482
855,0.0477
856,0.0476
857,0.0475
858,0.0473
859,0.0472
860,0.0473
861,0.0475
862,0.0475
863,0.0474
864,0.0478
865,0.0476
866,0.0476
867,0.0476
868,0.0478
869,0.0485
870,0.0482
871,0.0478
872,0.0482
873,0.0476
874,0.0473
875,0.0477
876,0.0475
877,0.0470
878,0.0475
879,0.0482
880,0.0479
881,0.0474
882,0.0479
883,0.0483
884,0.0481
885,0.0476
886,0.0475
887,0.0472
888,0.0475
889,0.0476
890,0.0473
891,0.0481
892,0.0481
893,0.0479
894,0.0476
895,0.0477
896,0.0478
897,0.0482
898,0.0473
899,0.0482
900,0.0478
