402,0.0452
403,0.0442
404,0.0438
405,0.0442
406,0.0450
407,0.0461
408,0.0476
409,0.0482
410,0.0484
411,0.0481
412,0.0468
413,0.0458
414,0.0449
415,0.0438
416,0.0435
417,0.0439
418,0.0446
419,0.0460
420,0.0470
421,0.0477
422,0.0482
423,0.0481
424,0.0475
425,0.0466
426,0.0449
427,0.0441
428,0.0434
429,0.0433
430,0.0438
431,0.0446
432,0.0455
433,0.0470
434,0.0476
435,0.0481
436,0.0481
437,0.0475
438,0.0466
439,0.0457
440,0.0441
441,0.0434
442,0.0430
443,0.0432
444,0.0437
445,0.0444
446,0.0454
447,0.0468
448,0.0476
449,0.0480
450,0.0480
451,0.0477
452,0.0470
453,0.0461
454,0.0447
455,0.0438
456,0.0432
457,0.0427
458,0.0428
459,0.0433
460,0.0445
461,0.0454
462,0.0463
463,0.0470
464,0.0477
465,0.0479
466,0.0479
467,0.0471
468,0.0464
469,0.0454
470,0.0442
471,0.0433
472,0.0427
473,0.0425
474,0.0428
475,0.0432
476,0.0438
477,0.0450
478,0.0459
479,0.0466
480,0.0475
481,0.0477
482,0.0477
483,0.0472
484,0.0461
485,0.0448
486,0.0446
487,0.0447
488,0.0443
489,0.0426
490,0.0424
491,0.0425
492,0.0427
493,0.0436
494,0.0443
495,0.0451
496,0.0463
497,0.0469
498,0.0475
499,0.0478
500,0.0478
501,0.0475
502,0.0467
503,0.0461
504,0.0453
505,0.0441
506,0.0434
507,0.0428
508,0.0424
509,0.0423
510,0.0424
511,0.0428
512,0.0434
513,0.0442
514,0.0453
515,0.0460
516,0.0467
517,0.0473
518,0.0476
519,0.0476
520,0.0475
521,0.0472
522,0.0466
523,0.0454
524,0.0447
525,0.0440
526,0.0432
527,0.0426
528,0.0423
529,0.0420
530,0.0420
531,0.0423
532,0.0430
533,0.0436
534,0.0444
535,0.0454
536,0.0461
537,0.0467
538,0.0473
539,0.0476
540,0.0478
541,0.0476
542,0.0473
543,0.0466
544,0.0461
545,0.0455
546,0.0445
547,0.0436
548,0.0430
549,0.0425
550,0.0422
551,0.0419
552,0.0421
553,0.0424
554,0.0427
555,0.0434
556,0.0440
557,0.0450
558,0.0456
559,0.0462
560,0.0470
561,0.0474
562,0.0477
563,0.0477
564,0.0476
565,0.0473
566,0.0467
567,0.0460
568,0.0451
569,0.0446
570,0.0440
571,0.0434
572,0.0428
573,0.0422
574,0.0419
575,0.0419
576,0.0419
577,0.0422
578,0.0427
579,0.0434
580,0.0437
581,0.0443
582,0.0453
583,0.0458
584,0.0463
585,0.0470
586,0.0474
587,0.0478
588,0.0479
589,0.0479
590,0.0477
591,0.0473
592,0.0467
593,0.0462
594,0.0457
595,0.0447
596,0.0441
597,0.0436
598,0.0426
599,0.0422
600,0.0420
601,0.0418
602,0.0418
603,0.0419
604,0.0421
605,0.0426
606,0.0431
607,0.0436
608,0.0443
609,0.0448
610,0.0456
611,0.0463
612,0.0468
613,0.0474
614,0.0475
615,0.0477
616,0.0477
617,0.0478
618,0.0476
619,0.0473
620,0.0468
621,0.0464
622,0.0458
623,0.0448
624,0.0444
625,0.0437
626,0.0433
627,0.0428
628,0.0423
629,0.0420
630,0.0419
631,0.0417
632,0.0416
633,0.0420
634,0.0421
635,0.0427
636,0.0432
637,0.0436
638,0.0443
639,0.0448
640,0.0456
641,0.0460
642,0.0466
643,0.0469
644,0.0472
645,0.0476
646,0.0476
647,0.0476
648,0.0475
649,0.0475
650,0.0471
651,0.0468
652,0.0462
653,0.0457
654,0.0436
655,0.0448
656,0.0451
657,0.0453
658,0.0452
659,0.0430
660,0.0423
661,0.0417
662,0.0416
663,0.0417
664,0.0416
665,0.0418
666,0.0419
667,0.0421
668,0.0427
669,0.0430
670,0.0436
671,0.0442
672,0.0445
673,0.0453
674,0.0458
675,0.0465
676,0.0466
677,0.0471
678,0.0475
679,0.0477
680,0.0477
681,0.0481
682,0.0479
683,0.0478
684,0.0472
685,0.0470
686,0.0466
687,0.0462
688,0.0456
689,0.0452
690,0.0447
691,0.0441
692,0.0436
693,0.0431
694,0.0427
695,0.0421
696,0.0418
697,0.0416
698,0.0416
699,0.0415
700,0.0415
701,0.0415
702,0.0419
703,0.0420
704,0.0423
705,0.0426
706,0.0432
707,0.0438
708,0.0443
709,0.0446
710,0.0454
711,0.0458
712,0.0462
713,0.0467
714,0.0471
715,0.0472
716,0.0475
717,0.0476
718,0.0480
719,0.0480
720,0.0478
721,0.0478
722,0.0475
723,0.0472
724,0.0470
725,0.0464
726,0.0462
727,0.0456
728,0.0453
729,0.0448
730,0.0442
731,0.0437
732,0.0434
733,0.0427
734,0.0425
735,0.0424
736,0.0421
737,0.0419
738,0.0417
739,0.0414
740,0.0414
741,0.0416
742,0.0414
743,0.0418
744,0.0420
745,0.0425
746,0.0428
747,0.0433
748,0.0435
749,0.0442
750,0.0446
751,0.0452
752,0.0456
753,0.0463
754,0.0465
755,0.0469
756,0.0471
757,0.0477
758,0.0479
759,0.0478
760,0.0479
761,0.0480
762,0.0481
763,0.0480
764,0.0479
765,0.0475
766,0.0472
767,0.0470
768,0.0470
769,0.0468
770,0.0463
771,0.0456
772,0.0451
773,0.0447
774,0.0442
775,0.0438
776,0.0434
777,0.0429
778,0.0429
779,0.0424
780,0.0421
781,0.0418
782,0.0413
783,0.0414
784,0.0413
785,0.0415
786,0.0414
787,0.0414
788,0.0419
789,0.0420
790,0.0422
791,0.0424
792,0.0427
793,0.0435
794,0.0437
795,0.0440
796,0.0441
797,0.0447
798,0.0451
799,0.0455
800,0.0460
801,0.0464
802,0.0464
803,0.0469
804,0.0473
805,0.0480
806,0.0483
807,0.0484
808,0.0482
809,0.0484
810,0.0482
811,0.0483
812,0.0481
813,0.0478
814,0.0478
815,0.0471
816,0.0473
817,0.0471
818,0.0465
819,0.0461
820,0.0457
821,0.0455
822,0.0449
823,0.0445
824,0.0445
825,0.0442
826,0.0436
827,0.0432
828,0.0427
829,0.0426
830,0.0423
831,0.0422
832,0.0418
833,0.0419
834,0.0413
835,0.0414
836,0.0418
837,0.0417
838,0.0414
839,0.0417
840,0.0418
841,0.0418
842,0.0418
843,0.0424
844,0.0424
845,0.0433
846,0.0435
847,0.0440
848,0.0442
849,0.0445
850,0.0449
851,0.0457
852,0.0464
853,0.0465
854,0.0462
855,0.0464
856,0.0468
857,0.0475
858,0.0477
859,0.0479
860,0.0482
861,0.0482
862,0.0482
863,0.0483
864,0.0486
865,0.0485
866,0.0479
867,0.0478
868,0.0477
869,0.0485
870,0.0485
871,0.0476
872,0.0471
873,0.0471
874,0.0470
875,0.0462
876,0.0464
877,0.0457
878,0.0455
879,0.0451
880,0.0448
881,0.0440
882,0.0442
883,0.0441
884,0.0444
885,0.0427
886,0.0428
887,0.0423
888,0.0421
889,0.0417
890,0.0418
891,0.0418
892,0.0417
893,0.0414
894,0.0417
895,0.0420
896,0.0418
897,0.0418
898,0.0422
